# OpenSignals Text File Format
# {"20:16:07:18:16:03": {"sensor": ["RAW", "ECGBIT", "RAW", "RAW", "RAW", "RAW"], "device name": "id_12", "column": ["nSeq", "I1", "I2", "O1", "O2", "A1", "A2", "A3", "A4", "A5", "A6"], "sync interval": 2, "time": "12:14:28.337", "comments": "", "device connection": "BTH20:16:07:18:16:03", "channels": [1, 2, 3, 4, 5, 6], "keywords": "", "mode": 2, "digital IO": [0, 0, 1, 1], "firmware version": 1281, "device": "bitalino_rev", "position": 0, "sampling rate": 1000, "label": ["A1", "A2", "A3", "A4", "A5", "A6"], "resolution": [4, 1, 1, 1, 1, 10, 10, 10, 10, 6, 6], "date": "2018-4-5", "special": [{}, {}, {}, {}, {}, {}]}}
# EndOfHeader
9	0	0	1	1	495	512	0	517	38	8	
10	0	0	1	1	505	513	1	527	38	8	
11	0	0	1	1	510	513	0	537	38	8	
12	0	0	1	1	515	513	1	551	38	8	
13	0	0	1	1	514	513	0	563	38	8	
14	0	0	1	1	504	513	0	532	38	8	
15	0	0	1	1	509	513	1	506	38	8	
0	0	0	1	1	507	513	0	510	38	8	
1	0	0	1	1	507	513	1	514	39	8	
2	0	0	1	1	513	513	0	518	38	8	
3	0	0	1	1	516	512	1	519	38	8	
4	0	0	1	1	507	513	0	476	38	8	
5	0	0	1	1	514	513	1	465	39	8	
6	0	0	1	1	513	512	0	466	39	8	
7	0	0	1	1	508	513	1	475	38	8	
8	0	0	1	1	510	513	0	492	39	8	
9	0	0	1	1	514	513	1	484	38	8	
10	0	0	1	1	507	512	0	475	38	7	
11	0	0	1	1	509	512	1	482	39	8	
12	0	0	1	1	509	513	0	496	39	8	
13	0	0	1	1	507	513	1	508	38	8	
14	0	0	1	1	509	512	0	507	38	8	
15	0	0	1	1	513	512	1	487	38	8	
0	0	0	1	1	512	512	0	477	38	8	
1	0	0	1	1	511	512	1	478	38	8	
2	0	0	1	1	520	512	0	486	38	8	
3	0	0	1	1	511	513	0	503	38	8	
4	0	0	1	1	503	512	1	476	38	7	
5	0	0	1	1	507	512	0	468	38	8	
6	0	0	1	1	511	512	1	469	38	8	
7	0	0	1	1	508	512	1	483	38	8	
8	0	0	1	1	507	512	0	500	38	8	
9	0	0	1	1	504	513	1	492	38	8	
10	0	0	1	1	509	512	0	464	38	8	
11	0	0	1	1	514	512	1	464	38	8	
12	0	0	1	1	505	513	0	472	38	7	
13	0	0	1	1	513	513	1	491	38	7	
14	0	0	1	1	511	512	1	506	38	7	
15	0	0	1	1	507	512	1	482	38	7	
0	0	0	1	1	512	514	0	476	38	7	
1	0	0	1	1	508	512	1	480	38	7	
2	0	0	1	1	512	512	0	481	38	8	
3	0	0	1	1	507	512	1	483	38	7	
4	0	0	1	1	511	512	0	459	38	7	
5	0	0	1	1	508	512	1	437	38	7	
6	0	0	1	1	510	512	0	443	38	7	
7	0	0	1	1	513	512	1	457	38	7	
8	0	0	1	1	514	512	0	476	38	7	
9	0	0	1	1	516	511	1	494	38	7	
10	0	0	1	1	510	512	0	480	38	7	
11	0	0	1	1	513	512	1	484	38	7	
12	0	0	1	1	506	512	0	495	38	7	
13	0	0	1	1	516	512	1	517	38	7	
14	0	0	1	1	516	512	0	513	38	7	
15	0	0	1	1	511	512	1	497	38	7	
0	0	0	1	1	520	512	0	478	38	7	
1	0	0	1	1	505	512	1	476	38	7	
2	0	0	1	1	502	512	0	485	38	7	
3	0	0	1	1	509	512	1	501	38	7	
4	0	0	1	1	504	512	0	514	38	7	
5	0	0	1	1	509	512	1	495	38	7	
6	0	0	1	1	515	512	0	499	38	7	
7	0	0	1	1	503	512	1	509	38	7	
8	0	0	1	1	507	512	0	524	38	7	
9	0	0	1	1	510	512	1	542	38	7	
10	0	0	1	1	512	512	0	509	38	7	
11	0	0	1	1	507	512	1	491	38	7	
12	0	0	1	1	512	512	0	489	38	7	
13	0	0	1	1	507	512	1	495	38	7	
14	0	0	1	1	507	512	0	509	38	7	
15	0	0	1	1	509	512	1	504	38	7	
0	0	0	1	1	516	512	0	471	38	7	
1	0	0	1	1	518	512	1	469	38	7	
2	0	0	1	1	517	512	0	478	38	7	
3	0	0	1	1	516	512	1	496	38	7	
4	0	0	1	1	503	512	0	518	38	7	
5	0	0	1	1	508	512	1	506	38	7	
6	0	0	1	1	513	514	1	499	38	7	
7	0	0	1	1	510	512	1	502	38	7	
8	0	0	1	1	515	512	0	513	38	7	
9	0	0	1	1	508	512	1	526	38	7	
10	0	0	1	1	504	512	0	521	38	7	
11	0	0	1	1	516	512	1	504	38	7	
12	0	0	1	1	505	512	0	496	38	7	
13	0	0	1	1	510	512	1	506	38	7	
14	0	0	1	1	514	512	0	520	38	7	
15	0	0	1	1	512	510	1	536	38	7	
0	0	0	1	1	512	512	0	501	38	7	
1	0	0	1	1	515	512	1	497	38	7	
2	0	0	1	1	513	512	0	496	38	7	
3	0	0	1	1	508	512	1	507	38	7	
4	0	0	1	1	512	512	0	523	38	7	
5	0	0	1	1	506	512	1	516	38	7	
6	0	0	1	1	512	512	0	515	38	7	
7	0	0	1	1	514	512	1	526	38	7	
8	0	0	1	1	507	512	0	530	38	7	
9	0	0	1	1	508	512	1	541	38	7	
10	0	0	1	1	517	512	0	543	38	7	
11	0	0	1	1	512	512	1	520	38	7	
12	0	0	1	1	514	512	0	513	38	7	
13	0	0	1	1	511	512	1	524	38	7	
14	0	0	1	1	505	512	0	531	38	7	
15	0	0	1	1	503	512	1	548	38	7	
0	0	0	1	1	511	512	0	536	38	7	
1	0	0	1	1	505	512	1	523	38	7	
2	0	0	1	1	508	512	0	518	38	7	
3	0	0	1	1	516	512	1	522	38	7	
4	0	0	1	1	518	512	0	534	38	7	
5	0	0	1	1	502	512	1	523	38	7	
6	0	0	1	1	516	512	0	481	38	7	
7	0	0	1	1	510	512	1	471	38	7	
8	0	0	1	1	512	512	0	480	38	7	
9	0	0	1	1	514	512	1	493	38	7	
10	0	0	1	1	509	512	0	513	38	7	
11	0	0	1	1	514	512	1	475	38	7	
12	0	0	1	1	510	514	1	460	38	7	
13	0	0	1	1	501	512	1	464	38	7	
14	0	0	1	1	518	512	1	482	38	7	
15	0	0	1	1	514	512	1	505	38	7	
0	0	0	1	1	510	512	0	497	38	7	
1	0	0	1	1	508	512	1	474	38	7	
2	0	0	1	1	510	512	1	479	38	7	
3	0	0	1	1	507	512	1	500	38	7	
4	0	0	1	1	514	512	1	521	38	7	
5	0	0	1	1	511	510	0	546	38	7	
6	0	0	1	1	510	512	1	520	38	7	
7	0	0	1	1	505	512	0	518	38	7	
8	0	0	1	1	503	512	1	516	38	7	
9	0	0	1	1	512	512	0	524	38	7	
10	0	0	1	1	506	512	1	531	38	7	
11	0	0	1	1	513	512	0	526	38	7	
12	0	0	1	1	508	512	1	523	38	7	
13	0	0	1	1	511	512	0	528	38	7	
14	0	0	1	1	506	512	1	538	38	7	
15	0	0	1	1	510	512	0	551	38	7	
0	0	0	1	1	508	512	1	554	38	7	
1	0	0	1	1	517	512	0	524	38	7	
2	0	0	1	1	521	512	1	523	38	7	
3	0	0	1	1	508	512	0	530	38	7	
4	0	0	1	1	512	512	1	543	38	7	
5	0	0	1	1	507	512	0	558	38	7	
6	0	0	1	1	511	512	1	555	38	7	
7	0	0	1	1	512	512	0	558	38	7	
8	0	0	1	1	509	511	1	553	38	7	
9	0	0	1	1	512	512	1	553	38	7	
10	0	0	1	1	504	512	0	558	38	7	
11	0	0	1	1	508	512	1	548	38	7	
12	0	0	1	1	508	512	1	527	38	7	
13	0	0	1	1	509	511	1	526	38	7	
14	0	0	1	1	517	512	0	532	38	7	
15	0	0	1	1	506	512	1	537	38	7	
0	0	0	1	1	514	512	2	548	38	7	
1	0	0	1	1	511	512	1	515	38	7	
2	0	0	1	1	513	512	0	505	38	7	
3	0	0	1	1	510	512	1	504	38	7	
4	0	0	1	1	503	512	0	522	38	7	
5	0	0	1	1	515	512	1	531	38	7	
6	0	0	1	1	507	512	0	524	38	7	
7	0	0	1	1	508	511	1	513	38	7	
8	0	0	1	1	515	512	0	529	38	7	
9	0	0	1	1	508	512	1	550	38	7	
10	0	0	1	1	513	512	0	584	38	7	
11	0	0	1	1	512	511	1	583	38	7	
12	0	0	1	1	510	512	0	554	38	7	
13	0	0	1	1	505	512	1	550	38	7	
14	0	0	1	1	508	512	0	558	38	7	
15	0	0	1	1	515	512	1	572	38	7	
0	0	0	1	1	510	512	0	582	38	7	
1	0	0	1	1	509	512	1	566	38	7	
2	0	0	1	1	505	512	0	554	38	7	
3	0	0	1	1	509	512	1	558	38	7	
4	0	0	1	1	511	512	0	567	38	7	
5	0	0	1	1	508	512	1	575	38	7	
6	0	0	1	1	508	512	0	569	38	7	
7	0	0	1	1	515	512	1	543	38	7	
8	0	0	1	1	511	512	0	538	38	7	
9	0	0	1	1	503	512	1	540	38	7	
10	0	0	1	1	514	512	0	552	38	7	
11	0	0	1	1	515	512	1	561	38	7	
12	0	0	1	1	508	512	0	519	38	7	
13	0	0	1	1	507	513	2	501	38	7	
14	0	0	1	1	511	512	0	507	38	7	
15	0	0	1	1	510	512	1	521	38	7	
0	0	0	1	1	508	512	0	537	38	7	
1	0	0	1	1	502	512	1	523	38	7	
2	0	0	1	1	513	512	0	500	38	7	
3	0	0	1	1	510	512	1	504	38	7	
4	0	0	1	1	513	512	0	516	38	7	
5	0	0	1	1	509	512	1	533	38	7	
6	0	0	1	1	510	510	0	546	38	7	
7	0	0	1	1	511	511	1	511	38	7	
8	0	0	1	1	515	512	0	504	38	7	
9	0	0	1	1	511	512	1	513	38	7	
10	0	0	1	1	512	511	0	532	38	7	
11	0	0	1	1	504	512	1	551	38	7	
12	0	0	1	1	515	512	0	533	38	7	
13	0	0	1	1	511	511	1	521	38	7	
14	0	0	1	1	508	512	0	531	38	7	
15	0	0	1	1	512	511	1	545	38	7	
0	0	0	1	1	510	512	0	564	38	7	
1	0	0	1	1	510	512	1	576	38	7	
2	0	0	1	1	509	512	0	537	38	7	
3	0	0	1	1	508	512	1	532	38	7	
4	0	0	1	1	509	512	0	542	38	7	
5	0	0	1	1	502	512	1	560	38	7	
6	0	0	1	1	510	512	0	572	38	7	
7	0	0	1	1	512	512	1	556	38	7	
8	0	0	1	1	514	512	0	547	38	7	
9	0	0	1	1	504	512	1	553	38	7	
10	0	0	1	1	514	512	0	560	38	7	
11	0	0	1	1	518	512	1	567	38	7	
12	0	0	1	1	508	512	0	564	38	7	
13	0	0	1	1	508	512	1	548	38	7	
14	0	0	1	1	518	512	0	547	38	7	
15	0	0	1	1	510	512	1	557	38	7	
0	0	0	1	1	512	512	0	565	38	7	
1	0	0	1	1	508	512	3	573	38	7	
2	0	0	1	1	513	512	0	521	38	7	
3	0	0	1	1	510	513	1	510	38	7	
4	0	0	1	1	512	512	0	499	38	7	
5	0	0	1	1	508	512	1	509	38	7	
6	0	0	1	1	506	512	0	526	38	7	
7	0	0	1	1	508	512	1	521	38	7	
8	0	0	1	1	511	512	1	513	38	7	
9	0	0	1	1	516	512	1	536	38	7	
10	0	0	1	1	513	512	0	548	38	7	
11	0	0	1	1	507	512	0	569	38	7	
12	0	0	1	1	507	511	1	575	38	7	
13	0	0	1	1	511	512	1	523	38	7	
14	0	0	1	1	518	512	1	512	38	7	
15	0	0	1	1	511	512	0	513	38	7	
0	0	0	1	1	515	512	1	523	38	7	
1	0	0	1	1	510	512	0	543	38	7	
2	0	0	1	1	514	512	1	518	38	7	
3	0	0	1	1	508	512	0	499	38	7	
4	0	0	1	1	510	512	1	501	38	7	
5	0	0	1	1	511	512	0	513	38	7	
6	0	0	1	1	502	512	1	529	38	7	
7	0	0	1	1	510	512	1	539	38	7	
8	0	0	1	1	506	512	1	514	38	7	
9	0	0	1	1	513	512	1	512	38	7	
10	0	0	1	1	512	512	0	519	38	7	
11	0	0	1	1	513	512	1	533	38	7	
12	0	0	1	1	513	512	1	548	38	7	
13	0	0	1	1	515	512	1	521	38	7	
14	0	0	1	1	514	514	1	515	38	7	
15	0	0	1	1	504	512	1	520	38	7	
0	0	0	1	1	518	512	0	535	38	7	
1	0	0	1	1	511	512	1	550	38	7	
2	0	0	1	1	510	512	0	540	38	7	
3	0	0	1	1	504	512	1	529	38	7	
4	0	0	1	1	513	512	1	544	38	7	
5	0	0	1	1	510	512	1	562	38	7	
6	0	0	1	1	519	512	0	578	38	7	
7	0	0	1	1	507	510	1	593	38	7	
8	0	0	1	1	505	512	0	566	38	7	
9	0	0	1	1	513	512	1	566	38	7	
10	0	0	1	1	507	512	0	551	38	7	
11	0	0	1	1	519	512	1	554	38	7	
12	0	0	1	1	512	512	0	563	38	7	
13	0	0	1	1	510	512	1	531	38	7	
14	0	0	1	1	510	512	0	514	38	7	
15	0	0	1	1	508	512	1	517	38	7	
0	0	0	1	1	511	512	0	529	38	7	
1	0	0	1	1	512	512	1	543	38	7	
2	0	0	1	1	511	512	0	554	38	7	
3	0	0	1	1	514	512	1	537	38	7	
4	0	0	1	1	511	512	0	534	38	7	
5	0	0	1	1	508	512	1	541	38	7	
6	0	0	1	1	503	512	0	553	38	7	
7	0	0	1	1	509	512	1	561	38	7	
8	0	0	1	1	515	512	0	539	38	7	
9	0	0	1	1	512	512	0	538	38	7	
10	0	0	1	1	507	512	0	544	38	7	
11	0	0	1	1	514	512	1	558	38	7	
12	0	0	1	1	506	512	0	572	38	7	
13	0	0	1	1	508	512	1	561	38	7	
14	0	0	1	1	515	512	0	539	38	7	
15	0	0	1	1	506	512	1	536	38	7	
0	0	0	1	1	511	512	0	544	38	7	
1	0	0	1	1	511	512	1	556	38	7	
2	0	0	1	1	509	512	1	568	38	7	
3	0	0	1	1	519	512	1	529	38	7	
4	0	0	1	1	515	512	0	511	38	7	
5	0	0	1	1	512	512	1	508	38	7	
6	0	0	1	1	495	512	0	518	38	7	
7	0	0	1	1	504	512	1	536	38	7	
8	0	0	1	1	507	512	1	526	38	7	
9	0	0	1	1	515	512	1	511	38	7	
10	0	0	1	1	513	512	0	520	38	7	
11	0	0	1	1	509	512	1	539	38	7	
12	0	0	1	1	506	512	0	558	38	7	
13	0	0	1	1	518	512	1	568	38	7	
14	0	0	1	1	514	512	0	547	38	7	
15	0	0	1	1	518	512	0	542	38	7	
0	0	0	1	1	504	512	1	540	38	7	
1	0	0	1	1	513	512	0	552	38	7	
2	0	0	1	1	511	512	1	568	38	7	
3	0	0	1	1	507	512	0	553	38	7	
4	0	0	1	1	508	512	1	536	38	7	
5	0	0	1	1	515	512	0	532	38	7	
6	0	0	1	1	511	512	1	536	38	7	
7	0	0	1	1	509	512	0	548	37	7	
8	0	0	1	1	509	512	1	537	37	7	
9	0	0	1	1	504	512	0	509	38	7	
10	0	0	1	1	514	512	1	501	38	7	
11	0	0	1	1	505	512	0	509	38	7	
12	0	0	1	1	510	512	1	523	38	7	
13	0	0	1	1	511	512	0	540	37	7	
14	0	0	1	1	523	512	1	510	38	7	
15	0	0	1	1	505	514	1	500	38	7	
0	0	0	1	1	507	512	1	504	38	7	
1	0	0	1	1	507	512	1	514	38	7	
2	0	0	1	1	505	512	1	524	38	7	
3	0	0	1	1	516	512	1	509	38	7	
4	0	0	1	1	514	512	1	494	38	7	
5	0	0	1	1	507	512	1	508	38	7	
6	0	0	1	1	514	512	1	527	38	7	
7	0	0	1	1	514	512	0	558	38	7	
8	0	0	1	1	509	511	1	560	38	7	
9	0	0	1	1	503	512	1	530	37	7	
10	0	0	1	1	508	512	1	532	38	7	
11	0	0	1	1	508	512	0	537	38	7	
12	0	0	1	1	510	512	1	548	38	7	
13	0	0	1	1	512	512	0	567	38	7	
14	0	0	1	1	507	512	1	533	38	7	
15	0	0	1	1	504	512	0	519	38	7	
0	0	0	1	1	515	512	1	526	38	7	
1	0	0	1	1	511	512	0	535	38	7	
2	0	0	1	1	517	512	1	547	38	7	
3	0	0	1	1	513	512	0	539	38	7	
4	0	0	1	1	510	512	1	508	38	7	
5	0	0	1	1	513	512	0	508	38	7	
6	0	0	1	1	514	512	1	515	38	7	
7	0	0	1	1	510	512	0	530	38	7	
8	0	0	1	1	513	512	1	544	38	7	
9	0	0	1	1	513	512	0	523	38	7	
10	0	0	1	1	511	513	2	518	38	7	
11	0	0	1	1	506	512	0	528	38	7	
12	0	0	1	1	508	512	1	540	38	7	
13	0	0	1	1	516	512	0	551	38	7	
14	0	0	1	1	504	512	1	537	38	7	
15	0	0	1	1	511	512	0	520	38	7	
0	0	0	1	1	508	512	1	523	38	7	
1	0	0	1	1	513	512	0	534	38	7	
2	0	0	1	1	503	512	1	545	38	7	
3	0	0	1	1	507	510	0	561	38	7	
4	0	0	1	1	516	512	1	546	38	7	
5	0	0	1	1	514	512	0	533	38	7	
6	0	0	1	1	508	512	1	537	38	7	
7	0	0	1	1	510	512	0	545	38	7	
8	0	0	1	1	516	512	1	556	38	7	
9	0	0	1	1	509	512	1	536	38	7	
10	0	0	1	1	510	512	1	524	38	7	
11	0	0	1	1	515	512	1	529	38	7	
12	0	0	1	1	513	512	1	536	38	7	
13	0	0	1	1	505	512	1	555	38	7	
14	0	0	1	1	514	513	1	559	38	7	
15	0	0	1	1	511	512	1	532	38	7	
0	0	0	1	1	510	512	0	529	38	7	
1	0	0	1	1	506	512	1	551	38	7	
2	0	0	1	1	510	512	0	554	38	7	
3	0	0	1	1	512	512	1	574	38	7	
4	0	0	1	1	511	512	0	553	38	7	
5	0	0	1	1	511	512	0	545	39	7	
6	0	0	1	1	513	512	0	547	39	7	
7	0	0	1	1	513	512	1	560	39	7	
8	0	0	1	1	515	512	0	579	39	7	
9	0	0	1	1	499	512	1	566	38	7	
10	0	0	1	1	511	512	0	542	38	7	
11	0	0	1	1	516	512	1	537	38	7	
12	0	0	1	1	514	512	0	544	38	7	
13	0	0	1	1	512	512	0	553	38	7	
14	0	0	1	1	500	512	1	564	38	7	
15	0	0	1	1	513	512	0	527	38	7	
0	0	0	1	1	511	512	1	517	38	7	
1	0	0	1	1	511	512	1	521	38	7	
2	0	0	1	1	508	512	1	533	38	7	
3	0	0	1	1	509	512	0	550	38	7	
4	0	0	1	1	510	512	1	544	38	7	
5	0	0	1	1	518	512	1	536	38	7	
6	0	0	1	1	510	512	1	554	38	7	
7	0	0	1	1	504	512	0	568	38	7	
8	0	0	1	1	506	513	1	584	38	7	
9	0	0	1	1	511	512	1	588	38	7	
10	0	0	1	1	511	512	1	559	38	7	
11	0	0	1	1	512	512	0	558	38	7	
12	0	0	1	1	506	512	1	569	38	7	
13	0	0	1	1	519	512	0	569	38	7	
14	0	0	1	1	511	513	1	580	38	7	
15	0	0	1	1	508	512	0	564	38	7	
0	0	0	1	1	512	512	1	557	39	7	
1	0	0	1	1	517	512	0	556	38	7	
2	0	0	1	1	503	512	1	557	38	7	
3	0	0	1	1	506	512	0	572	38	7	
4	0	0	1	1	510	512	1	570	38	7	
5	0	0	1	1	512	512	0	566	38	7	
6	0	0	1	1	514	512	1	568	38	7	
7	0	0	1	1	508	512	0	573	38	7	
8	0	0	1	1	518	512	1	583	38	7	
9	0	0	1	1	511	512	1	591	38	7	
10	0	0	1	1	514	512	1	546	38	7	
11	0	0	1	1	515	514	0	519	38	7	
12	0	0	1	1	500	512	1	510	38	7	
13	0	0	1	1	513	512	0	515	38	7	
14	0	0	1	1	508	512	1	526	38	7	
15	0	0	1	1	508	512	0	515	38	7	
0	0	0	1	1	514	512	1	500	38	7	
1	0	0	1	1	514	512	0	518	38	7	
2	0	0	1	1	515	512	1	534	38	7	
3	0	0	1	1	504	512	0	545	38	7	
4	0	0	1	1	508	511	1	553	38	7	
5	0	0	1	1	510	512	0	519	38	7	
6	0	0	1	1	512	512	1	511	38	7	
7	0	0	1	1	514	512	0	517	38	7	
8	0	0	1	1	505	512	1	531	38	7	
9	0	0	1	1	517	512	0	548	38	7	
10	0	0	1	1	509	512	1	542	38	7	
11	0	0	1	1	511	512	0	542	38	7	
12	0	0	1	1	511	512	0	551	38	7	
13	0	0	1	1	514	512	1	555	38	7	
14	0	0	1	1	511	512	1	564	38	7	
15	0	0	1	1	505	512	1	559	38	7	
0	0	0	1	1	512	512	1	533	38	7	
1	0	0	1	1	515	512	1	532	38	7	
2	0	0	1	1	509	512	0	543	38	7	
3	0	0	1	1	511	512	1	553	38	7	
4	0	0	1	1	503	512	0	564	38	7	
5	0	0	1	1	502	512	1	520	38	7	
6	0	0	1	1	514	514	1	482	38	7	
7	0	0	1	1	504	512	1	473	38	7	
8	0	0	1	1	509	512	0	478	38	7	
9	0	0	1	1	516	512	1	495	38	7	
10	0	0	1	1	506	512	0	487	38	7	
11	0	0	1	1	510	512	1	474	38	7	
12	0	0	1	1	509	512	0	491	38	7	
13	0	0	1	1	511	512	1	519	38	7	
14	0	0	1	1	511	512	0	545	38	7	
15	0	0	1	1	510	511	1	561	38	7	
0	0	0	1	1	508	512	1	532	38	7	
1	0	0	1	1	513	512	1	528	38	7	
2	0	0	1	1	508	512	1	541	38	7	
3	0	0	1	1	511	512	1	554	38	7	
4	0	0	1	1	507	512	0	566	38	7	
5	0	0	1	1	512	512	1	545	38	7	
6	0	0	1	1	517	512	1	529	38	7	
7	0	0	1	1	514	512	0	530	38	7	
8	0	0	1	1	514	512	1	539	38	7	
9	0	0	1	1	513	512	0	551	38	7	
10	0	0	1	1	505	512	0	538	38	7	
11	0	0	1	1	511	512	1	495	38	7	
12	0	0	1	1	512	512	0	485	38	7	
13	0	0	1	1	509	512	1	483	38	7	
14	0	0	1	1	508	512	0	494	38	7	
15	0	0	1	1	510	512	1	503	38	7	
0	0	0	1	1	511	512	1	475	38	7	
1	0	0	1	1	515	514	1	474	38	7	
2	0	0	1	1	505	512	0	481	38	7	
3	0	0	1	1	512	512	1	499	38	7	
4	0	0	1	1	512	512	0	520	38	7	
5	0	0	1	1	504	512	1	517	38	7	
6	0	0	1	1	512	512	1	511	38	7	
7	0	0	1	1	510	512	0	531	38	7	
8	0	0	1	1	510	512	1	554	38	7	
9	0	0	1	1	507	512	0	573	38	7	
10	0	0	1	1	510	511	1	575	38	7	
11	0	0	1	1	511	512	0	535	38	7	
12	0	0	1	1	511	512	1	523	38	7	
13	0	0	1	1	508	512	0	523	38	7	
14	0	0	1	1	509	512	1	532	38	7	
15	0	0	1	1	516	512	0	543	38	7	
0	0	0	1	1	510	512	1	523	38	7	
1	0	0	1	1	513	512	0	515	38	7	
2	0	0	1	1	507	512	1	521	38	7	
3	0	0	1	1	512	512	0	527	38	7	
4	0	0	1	1	504	512	1	531	38	7	
5	0	0	1	1	514	512	0	523	38	7	
6	0	0	1	1	520	512	1	495	38	7	
7	0	0	1	1	511	512	0	493	38	7	
8	0	0	1	1	510	512	1	504	38	7	
9	0	0	1	1	510	512	0	522	38	7	
10	0	0	1	1	510	512	1	543	38	7	
11	0	0	1	1	516	512	1	513	38	7	
12	0	0	1	1	503	513	1	508	39	7	
13	0	0	1	1	507	512	1	516	39	7	
14	0	0	1	1	511	512	0	531	38	7	
15	0	0	1	1	508	512	1	545	38	7	
0	0	0	1	1	511	512	1	524	38	7	
1	0	0	1	1	509	512	1	498	38	7	
2	0	0	1	1	511	512	0	509	38	7	
3	0	0	1	1	508	512	1	526	38	7	
4	0	0	1	1	513	512	0	546	39	7	
5	0	0	1	1	510	511	1	560	38	7	
6	0	0	1	1	509	512	1	530	38	7	
7	0	0	1	1	510	512	1	525	38	7	
8	0	0	1	1	507	512	0	533	38	7	
9	0	0	1	1	510	512	1	548	38	7	
10	0	0	1	1	513	512	0	568	38	7	
11	0	0	1	1	504	512	1	560	38	7	
12	0	0	1	1	511	512	1	559	38	7	
13	0	0	1	1	514	512	1	565	38	7	
14	0	0	1	1	512	512	0	576	38	7	
15	0	0	1	1	509	512	1	581	38	7	
0	0	0	1	1	508	512	0	565	38	7	
1	0	0	1	1	511	512	1	521	38	7	
2	0	0	1	1	523	512	0	505	38	7	
3	0	0	1	1	509	512	1	505	38	7	
4	0	0	1	1	504	512	0	512	38	7	
5	0	0	1	1	501	512	1	525	37	7	
6	0	0	1	1	519	512	0	485	38	7	
7	0	0	1	1	514	514	1	472	38	7	
8	0	0	1	1	511	512	0	483	38	7	
9	0	0	1	1	504	512	1	482	37	7	
10	0	0	1	1	509	512	0	500	37	7	
11	0	0	1	1	515	512	1	488	38	7	
12	0	0	1	1	503	511	0	474	38	7	
13	0	0	1	1	513	511	1	491	37	7	
14	0	0	1	1	508	512	0	511	37	7	
15	0	0	1	1	514	512	1	536	38	7	
0	0	0	1	1	508	511	0	552	37	7	
1	0	0	1	1	512	512	1	528	38	7	
2	0	0	1	1	515	512	0	526	38	7	
3	0	0	1	1	512	512	1	528	38	7	
4	0	0	1	1	512	511	0	532	38	7	
5	0	0	1	1	506	512	1	544	38	7	
6	0	0	1	1	507	511	0	525	38	7	
7	0	0	1	1	504	511	1	518	38	7	
8	0	0	1	1	515	511	0	523	38	7	
9	0	0	1	1	512	511	1	530	38	7	
10	0	0	1	1	510	512	0	537	38	7	
11	0	0	1	1	503	512	1	520	38	7	
12	0	0	1	1	514	511	0	484	38	7	
13	0	0	1	1	523	511	1	480	38	7	
14	0	0	1	1	510	511	0	494	38	7	
15	0	0	1	1	508	512	1	514	38	7	
0	0	0	1	1	508	512	0	536	38	7	
1	0	0	1	1	507	512	1	510	38	7	
2	0	0	1	1	510	514	1	503	38	7	
3	0	0	1	1	511	512	1	499	38	7	
4	0	0	1	1	510	512	0	506	38	7	
5	0	0	1	1	512	512	1	519	38	7	
6	0	0	1	1	516	512	0	498	38	7	
7	0	0	1	1	511	512	1	472	38	7	
8	0	0	1	1	513	511	0	481	38	7	
9	0	0	1	1	508	512	0	508	38	7	
10	0	0	1	1	507	512	1	536	38	7	
11	0	0	1	1	512	511	1	547	38	7	
12	0	0	1	1	513	512	1	510	38	7	
13	0	0	1	1	505	512	0	501	38	7	
14	0	0	1	1	513	512	1	506	38	7	
15	0	0	1	1	512	512	1	517	38	7	
0	0	0	1	1	510	512	0	530	38	7	
1	0	0	1	1	513	512	1	518	38	7	
2	0	0	1	1	503	512	0	515	38	7	
3	0	0	1	1	515	512	1	530	38	7	
4	0	0	1	1	505	512	0	543	38	7	
5	0	0	1	1	511	512	1	563	38	7	
6	0	0	1	1	505	512	0	558	38	7	
7	0	0	1	1	510	511	1	520	38	7	
8	0	0	1	1	523	511	0	504	38	7	
9	0	0	1	1	509	512	1	499	38	7	
10	0	0	1	1	503	512	0	501	38	7	
11	0	0	1	1	513	512	1	512	38	7	
12	0	0	1	1	513	512	0	480	38	7	
13	0	0	1	1	506	513	1	469	38	7	
14	0	0	1	1	516	511	0	467	38	7	
15	0	0	1	1	517	511	1	478	38	7	
0	0	0	1	1	512	512	0	499	38	7	
1	0	0	1	1	505	511	1	497	38	7	
2	0	0	1	1	504	511	1	489	38	7	
3	0	0	1	1	513	511	1	508	38	7	
4	0	0	1	1	507	512	1	529	38	7	
5	0	0	1	1	508	512	1	547	38	7	
6	0	0	1	1	508	511	0	557	38	7	
7	0	0	1	1	511	512	1	513	38	7	
8	0	0	1	1	515	511	1	502	38	7	
9	0	0	1	1	511	511	1	508	38	7	
10	0	0	1	1	508	512	1	521	38	7	
11	0	0	1	1	511	511	1	540	38	7	
12	0	0	1	1	508	512	1	524	38	7	
13	0	0	1	1	513	511	1	515	38	7	
14	0	0	1	1	510	511	1	526	38	7	
15	0	0	1	1	506	512	1	538	38	7	
0	0	0	1	1	504	512	0	551	38	7	
1	0	0	1	1	507	512	1	545	38	7	
2	0	0	1	1	515	512	1	515	38	7	
3	0	0	1	1	511	512	1	512	38	7	
4	0	0	1	1	512	512	1	519	38	7	
5	0	0	1	1	518	512	1	535	38	7	
6	0	0	1	1	504	512	0	555	38	7	
7	0	0	1	1	511	512	1	519	38	7	
8	0	0	1	1	512	513	1	510	38	7	
9	0	0	1	1	502	512	1	507	38	7	
10	0	0	1	1	519	512	0	520	38	7	
11	0	0	1	1	509	512	1	530	38	7	
12	0	0	1	1	515	512	1	515	38	7	
13	0	0	1	1	516	512	1	501	38	7	
14	0	0	1	1	509	512	0	516	38	7	
15	0	0	1	1	510	512	1	540	38	7	
0	0	0	1	1	512	512	0	561	38	7	
1	0	0	1	1	507	511	1	571	38	7	
2	0	0	1	1	520	512	1	541	38	7	
3	0	0	1	1	510	512	0	528	38	7	
4	0	0	1	1	506	512	1	524	38	7	
5	0	0	1	1	508	512	0	529	38	7	
6	0	0	1	1	509	512	1	537	38	7	
7	0	0	1	1	511	512	0	519	38	7	
8	0	0	1	1	515	512	1	513	38	7	
9	0	0	1	1	505	511	0	521	38	7	
10	0	0	1	1	517	512	1	538	38	7	
11	0	0	1	1	519	512	0	561	38	7	
12	0	0	1	1	507	512	1	560	38	7	
13	0	0	1	1	517	512	0	526	38	7	
14	0	0	1	1	507	511	1	516	38	7	
15	0	0	1	1	507	512	0	517	38	7	
0	0	0	1	1	509	512	1	519	38	7	
1	0	0	1	1	511	512	1	528	38	7	
2	0	0	1	1	508	512	1	495	38	7	
3	0	0	1	1	515	513	0	483	38	7	
4	0	0	1	1	510	512	1	484	38	7	
5	0	0	1	1	513	512	0	494	38	7	
6	0	0	1	1	503	512	1	511	38	7	
7	0	0	1	1	510	512	0	503	38	7	
8	0	0	1	1	513	512	1	499	38	7	
9	0	0	1	1	512	512	0	515	38	7	
10	0	0	1	1	510	512	1	531	38	7	
11	0	0	1	1	505	512	0	547	38	7	
12	0	0	1	1	507	511	1	555	38	7	
13	0	0	1	1	513	512	0	528	38	7	
14	0	0	1	1	511	512	1	519	38	7	
15	0	0	1	1	512	512	0	518	37	7	
0	0	0	1	1	512	512	1	530	37	7	
1	0	0	1	1	514	512	0	545	37	7	
2	0	0	1	1	507	512	1	520	37	7	
3	0	0	1	1	513	512	0	497	38	7	
4	0	0	1	1	512	512	1	495	37	7	
5	0	0	1	1	508	512	0	505	37	7	
6	0	0	1	1	512	512	1	525	37	7	
7	0	0	1	1	510	512	0	525	37	7	
8	0	0	1	1	504	512	1	499	38	7	
9	0	0	1	1	507	512	0	500	38	7	
10	0	0	1	1	513	512	1	504	38	7	
11	0	0	1	1	507	512	1	515	38	7	
12	0	0	1	1	514	512	1	530	38	7	
13	0	0	1	1	518	512	1	510	38	7	
14	0	0	1	1	510	513	0	510	38	7	
15	0	0	1	1	505	512	1	515	38	7	
0	0	0	1	1	505	512	0	526	38	7	
1	0	0	1	1	510	512	1	541	38	7	
2	0	0	1	1	507	512	0	530	38	7	
3	0	0	1	1	515	512	1	515	38	7	
4	0	0	1	1	508	512	0	530	38	7	
5	0	0	1	1	511	512	1	545	38	7	
6	0	0	1	1	516	512	0	563	38	7	
7	0	0	1	1	516	511	1	572	38	7	
8	0	0	1	1	509	512	0	542	38	7	
9	0	0	1	1	517	512	1	541	38	7	
10	0	0	1	1	508	512	0	548	38	7	
11	0	0	1	1	507	512	1	564	38	7	
12	0	0	1	1	513	512	0	570	38	7	
13	0	0	1	1	515	512	1	553	38	7	
14	0	0	1	1	515	512	0	549	38	7	
15	0	0	1	1	512	512	1	553	38	7	
0	0	0	1	1	501	512	0	563	38	7	
1	0	0	1	1	507	512	1	581	38	7	
2	0	0	1	1	511	512	0	575	38	7	
3	0	0	1	1	514	512	1	553	38	7	
4	0	0	1	1	516	512	0	547	38	7	
5	0	0	1	1	506	512	1	550	38	7	
6	0	0	1	1	504	512	0	557	38	7	
7	0	0	1	1	507	512	2	563	38	7	
8	0	0	1	1	510	512	1	519	38	7	
9	0	0	1	1	510	513	0	497	38	7	
10	0	0	1	1	512	512	1	494	38	7	
11	0	0	1	1	511	512	0	499	38	7	
12	0	0	1	1	509	512	1	511	38	7	
13	0	0	1	1	508	512	0	497	38	7	
14	0	0	1	1	513	512	1	476	38	7	
15	0	0	1	1	511	512	0	491	38	7	
0	0	0	1	1	514	512	1	518	38	7	
1	0	0	1	1	509	512	0	543	38	7	
2	0	0	1	1	511	511	1	558	38	7	
3	0	0	1	1	511	512	0	524	38	7	
4	0	0	1	1	508	512	1	502	38	7	
5	0	0	1	1	514	512	0	504	38	7	
6	0	0	1	1	507	512	1	519	38	7	
7	0	0	1	1	508	512	1	539	38	7	
8	0	0	1	1	518	512	1	517	38	7	
9	0	0	1	1	510	511	1	508	38	7	
10	0	0	1	1	504	512	0	515	38	7	
11	0	0	1	1	504	512	1	527	38	7	
12	0	0	1	1	511	512	0	544	38	7	
13	0	0	1	1	515	512	1	544	38	7	
14	0	0	1	1	510	511	0	526	38	7	
15	0	0	1	1	512	511	1	524	38	7	
0	0	0	1	1	510	512	0	526	38	7	
1	0	0	1	1	508	512	1	537	38	7	
2	0	0	1	1	513	512	1	552	38	7	
3	0	0	1	1	512	511	1	507	38	7	
4	0	0	1	1	512	513	0	491	38	7	
5	0	0	1	1	502	512	1	487	38	7	
6	0	0	1	1	511	512	0	499	38	7	
7	0	0	1	1	516	512	1	516	38	7	
8	0	0	1	1	503	512	0	504	38	7	
9	0	0	1	1	509	512	1	492	38	7	
10	0	0	1	1	516	511	0	523	38	7	
11	0	0	1	1	506	512	1	530	38	7	
12	0	0	1	1	511	512	0	551	38	7	
13	0	0	1	1	504	511	1	564	38	7	
14	0	0	1	1	507	512	0	539	38	7	
15	0	0	1	1	518	511	1	535	38	7	
0	0	0	1	1	507	512	0	547	38	7	
1	0	0	1	1	507	512	1	558	38	7	
2	0	0	1	1	519	512	0	571	38	7	
3	0	0	1	1	516	512	1	552	38	7	
4	0	0	1	1	509	512	0	542	38	7	
5	0	0	1	1	508	512	1	544	38	7	
6	0	0	1	1	511	512	1	553	38	7	
7	0	0	1	1	511	512	1	562	38	7	
8	0	0	1	1	507	512	0	555	38	7	
9	0	0	1	1	512	512	1	531	38	7	
10	0	0	1	1	516	512	1	526	38	7	
11	0	0	1	1	509	512	0	533	38	7	
12	0	0	1	1	503	512	1	548	38	7	
13	0	0	1	1	512	512	2	557	38	7	
14	0	0	1	1	513	512	1	519	38	7	
15	0	0	1	1	504	513	0	509	38	7	
0	0	0	1	1	512	512	1	512	38	7	
1	0	0	1	1	509	512	0	533	38	7	
2	0	0	1	1	510	512	1	534	38	7	
3	0	0	1	1	513	512	0	515	38	7	
4	0	0	1	1	510	512	1	496	38	7	
5	0	0	1	1	504	512	0	510	38	7	
6	0	0	1	1	504	512	1	528	38	7	
7	0	0	1	1	510	512	0	556	38	7	
8	0	0	1	1	514	511	1	543	38	7	
9	0	0	1	1	512	511	0	511	38	7	
10	0	0	1	1	511	512	1	508	38	7	
11	0	0	1	1	517	511	0	514	38	7	
12	0	0	1	1	511	512	1	526	38	7	
13	0	0	1	1	512	512	0	536	38	7	
14	0	0	1	1	510	512	1	519	38	7	
15	0	0	1	1	507	512	0	509	38	7	
0	0	0	1	1	511	511	1	514	38	7	
1	0	0	1	1	508	512	0	524	38	7	
2	0	0	1	1	512	512	1	534	38	7	
3	0	0	1	1	513	512	0	524	38	7	
4	0	0	1	1	507	512	1	496	38	7	
5	0	0	1	1	510	511	0	490	38	7	
6	0	0	1	1	509	512	1	498	38	7	
7	0	0	1	1	505	512	0	505	38	7	
8	0	0	1	1	511	512	2	517	38	7	
9	0	0	1	1	515	512	0	486	38	7	
10	0	0	1	1	510	512	1	483	38	7	
11	0	0	1	1	511	512	0	492	38	7	
12	0	0	1	1	507	512	1	499	38	7	
13	0	0	1	1	508	512	0	515	38	7	
14	0	0	1	1	511	512	1	509	38	7	
15	0	0	1	1	511	512	0	506	38	7	
0	0	0	1	1	513	512	1	528	38	7	
1	0	0	1	1	504	512	0	551	38	7	
2	0	0	1	1	516	512	1	577	38	7	
3	0	0	1	1	515	512	0	586	38	7	
4	0	0	1	1	510	512	1	553	38	7	
5	0	0	1	1	511	512	0	542	38	7	
6	0	0	1	1	504	512	1	542	38	7	
7	0	0	1	1	507	512	0	545	38	7	
8	0	0	1	1	504	512	1	555	38	7	
9	0	0	1	1	513	512	0	541	38	7	
10	0	0	1	1	507	512	1	537	38	7	
11	0	0	1	1	510	512	0	549	38	7	
12	0	0	1	1	514	512	1	567	38	7	
13	0	0	1	1	508	512	0	581	38	7	
14	0	0	1	1	512	512	1	576	38	7	
15	0	0	1	1	511	512	1	553	38	7	
0	0	0	1	1	514	512	0	548	38	7	
1	0	0	1	1	508	512	1	545	38	7	
2	0	0	1	1	509	512	0	551	38	7	
3	0	0	1	1	511	512	2	558	38	7	
4	0	0	1	1	505	512	0	519	38	7	
5	0	0	1	1	515	513	1	509	38	7	
6	0	0	1	1	508	512	0	510	38	7	
7	0	0	1	1	508	512	1	521	38	7	
8	0	0	1	1	509	512	0	536	38	7	
9	0	0	1	1	510	512	1	520	38	7	
10	0	0	1	1	506	512	0	508	38	7	
11	0	0	1	1	509	512	1	521	38	7	
12	0	0	1	1	517	512	0	534	38	7	
13	0	0	1	1	507	512	1	546	38	7	
14	0	0	1	1	503	511	0	556	38	7	
15	0	0	1	1	507	512	1	527	38	7	
0	0	0	1	1	519	512	0	524	38	7	
1	0	0	1	1	511	512	1	530	38	7	
2	0	0	1	1	510	512	0	540	38	7	
3	0	0	1	1	514	512	1	553	38	7	
4	0	0	1	1	513	512	1	531	38	7	
5	0	0	1	1	508	512	1	523	38	7	
6	0	0	1	1	511	512	1	522	38	7	
7	0	0	1	1	509	512	0	536	38	7	
8	0	0	1	1	515	512	1	551	38	7	
9	0	0	1	1	507	512	1	551	38	7	
10	0	0	1	1	514	512	1	534	38	7	
11	0	0	1	1	507	512	1	527	38	7	
12	0	0	1	1	502	512	1	527	38	7	
13	0	0	1	1	509	512	1	530	38	7	
14	0	0	1	1	514	512	3	540	38	7	
15	0	0	1	1	511	512	1	503	38	7	
0	0	0	1	1	507	513	0	494	38	7	
1	0	0	1	1	515	512	0	499	38	7	
2	0	0	1	1	512	512	1	519	38	7	
3	0	0	1	1	506	512	1	531	38	7	
4	0	0	1	1	512	512	1	512	38	7	
5	0	0	1	1	515	512	1	486	38	7	
6	0	0	1	1	511	511	1	493	38	7	
7	0	0	1	1	509	512	0	512	38	7	
8	0	0	1	1	507	512	1	526	38	7	
9	0	0	1	1	515	511	1	530	38	7	
10	0	0	1	1	504	512	1	496	38	7	
11	0	0	1	1	518	511	0	495	38	7	
12	0	0	1	1	508	512	1	504	38	7	
13	0	0	1	1	509	512	0	522	38	7	
14	0	0	1	1	507	512	1	541	38	7	
15	0	0	1	1	510	512	0	521	38	7	
0	0	0	1	1	513	511	1	508	38	7	
1	0	0	1	1	508	512	0	515	38	7	
2	0	0	1	1	513	512	1	524	38	7	
3	0	0	1	1	516	512	0	540	38	7	
4	0	0	1	1	511	512	1	547	38	7	
5	0	0	1	1	507	511	0	506	38	7	
6	0	0	1	1	510	512	1	500	38	7	
7	0	0	1	1	512	512	0	504	38	7	
8	0	0	1	1	506	512	1	512	38	7	
9	0	0	1	1	510	512	2	526	38	7	
10	0	0	1	1	511	512	1	508	38	7	
11	0	0	1	1	515	513	0	512	38	7	
12	0	0	1	1	512	512	1	509	38	7	
13	0	0	1	1	504	512	0	512	38	7	
14	0	0	1	1	511	512	1	522	38	7	
15	0	0	1	1	514	512	0	502	38	7	
0	0	0	1	1	507	512	1	481	38	7	
1	0	0	1	1	508	512	1	499	38	7	
2	0	0	1	1	507	512	0	510	38	7	
3	0	0	1	1	508	512	1	526	38	7	
4	0	0	1	1	512	512	1	533	38	7	
5	0	0	1	1	511	512	1	502	38	7	
6	0	0	1	1	513	512	0	497	39	7	
7	0	0	1	1	505	512	1	509	38	7	
8	0	0	1	1	501	512	0	530	38	7	
9	0	0	1	1	512	512	1	548	38	7	
10	0	0	1	1	515	512	0	533	38	7	
11	0	0	1	1	517	512	1	524	39	7	
12	0	0	1	1	511	512	1	530	38	7	
13	0	0	1	1	513	512	0	540	38	7	
14	0	0	1	1	508	512	1	559	38	7	
15	0	0	1	1	505	512	1	548	38	7	
0	0	0	1	1	513	512	1	529	38	7	
1	0	0	1	1	510	512	0	529	38	7	
2	0	0	1	1	507	512	1	535	38	7	
3	0	0	1	1	509	512	0	543	38	7	
4	0	0	1	1	509	512	3	556	38	7	
5	0	0	1	1	520	512	0	540	38	7	
6	0	0	1	1	508	513	1	541	38	7	
7	0	0	1	1	510	512	0	547	38	7	
8	0	0	1	1	511	512	1	553	38	7	
9	0	0	1	1	501	512	0	561	38	7	
10	0	0	1	1	505	512	1	529	38	7	
11	0	0	1	1	509	512	0	495	38	7	
12	0	0	1	1	518	512	1	499	38	7	
13	0	0	1	1	505	512	0	516	38	7	
14	0	0	1	1	506	512	1	533	39	7	
15	0	0	1	1	516	512	1	551	38	7	
0	0	0	1	1	516	512	1	510	38	7	
1	0	0	1	1	519	512	1	506	38	7	
2	0	0	1	1	509	512	1	510	38	7	
3	0	0	1	1	504	512	1	514	38	7	
4	0	0	1	1	510	512	0	523	38	7	
5	0	0	1	1	508	512	1	507	38	7	
6	0	0	1	1	511	512	0	499	39	7	
7	0	0	1	1	508	512	1	510	38	7	
8	0	0	1	1	513	512	0	529	38	7	
9	0	0	1	1	513	512	1	548	38	7	
10	0	0	1	1	504	513	0	547	38	7	
11	0	0	1	1	517	512	1	537	38	7	
12	0	0	1	1	504	513	0	536	38	7	
13	0	0	1	1	506	513	1	541	38	7	
14	0	0	1	1	508	513	0	551	38	7	
15	0	0	1	1	510	513	3	566	38	7	
0	0	0	1	1	508	513	0	527	38	7	
1	0	0	1	1	512	513	1	509	38	7	
2	0	0	1	1	507	513	0	505	38	7	
3	0	0	1	1	510	513	1	505	38	7	
4	0	0	1	1	508	513	0	513	38	7	
5	0	0	1	1	520	513	1	490	38	7	
6	0	0	1	1	510	513	0	471	38	7	
7	0	0	1	1	507	513	1	485	38	7	
8	0	0	1	1	514	513	0	509	38	7	
9	0	0	1	1	516	513	1	527	38	7	
10	0	0	1	1	510	513	0	539	38	7	
11	0	0	1	1	516	513	1	518	38	7	
12	0	0	1	1	511	513	0	520	38	7	
13	0	0	1	1	507	513	1	529	38	7	
14	0	0	1	1	507	513	0	542	38	7	
15	0	0	1	1	512	513	1	553	38	7	
0	0	0	1	1	510	513	0	532	38	7	
1	0	0	1	1	515	513	1	519	38	7	
2	0	0	1	1	507	513	0	523	38	7	
3	0	0	1	1	506	513	1	530	38	7	
4	0	0	1	1	511	513	0	539	38	7	
5	0	0	1	1	506	513	1	525	38	7	
6	0	0	1	1	501	513	0	494	38	7	
7	0	0	1	1	517	513	1	485	38	7	
8	0	0	1	1	508	513	0	494	38	7	
9	0	0	1	1	518	513	1	508	38	7	
10	0	0	1	1	507	513	2	515	38	7	
11	0	0	1	1	519	513	1	471	38	7	
12	0	0	1	1	505	513	0	454	38	7	
13	0	0	1	1	510	513	1	453	38	7	
14	0	0	1	1	511	513	0	462	38	7	
15	0	0	1	1	511	513	1	476	38	7	
0	0	0	1	1	512	513	1	467	38	7	
1	0	0	1	1	510	513	1	461	38	7	
2	0	0	1	1	509	513	0	481	38	7	
3	0	0	1	1	508	513	1	507	38	7	
4	0	0	1	1	508	513	0	544	38	7	
5	0	0	1	1	522	513	1	540	38	7	
6	0	0	1	1	514	513	0	511	38	7	
7	0	0	1	1	515	513	1	505	38	7	
8	0	0	1	1	505	513	0	506	38	7	
9	0	0	1	1	508	513	1	516	38	7	
10	0	0	1	1	505	513	0	540	38	7	
11	0	0	1	1	508	513	1	509	38	7	
12	0	0	1	1	510	513	0	497	38	7	
13	0	0	1	1	508	513	1	502	38	7	
14	0	0	1	1	512	513	0	515	38	7	
15	0	0	1	1	507	513	1	527	38	7	
0	0	0	1	1	499	513	0	520	38	7	
1	0	0	1	1	510	513	1	497	38	7	
2	0	0	1	1	515	513	0	494	38	7	
3	0	0	1	1	510	513	1	494	38	7	
4	0	0	1	1	510	513	0	505	38	7	
5	0	0	1	1	514	513	3	523	38	7	
6	0	0	1	1	511	513	0	512	38	7	
7	0	0	1	1	514	514	1	510	38	7	
8	0	0	1	1	509	513	0	512	38	7	
9	0	0	1	1	516	513	1	521	38	7	
10	0	0	1	1	506	513	0	536	38	7	
11	0	0	1	1	507	513	1	523	38	7	
12	0	0	1	1	510	513	0	500	38	7	
13	0	0	1	1	510	513	1	508	38	7	
14	0	0	1	1	511	513	0	524	38	7	
15	0	0	1	1	513	513	1	532	38	7	
0	0	0	1	1	511	513	1	535	38	7	
1	0	0	1	1	512	513	1	502	38	7	
2	0	0	1	1	507	513	1	492	38	7	
3	0	0	1	1	505	513	0	496	38	7	
4	0	0	1	1	510	513	1	507	38	7	
5	0	0	1	1	516	513	0	527	38	7	
6	0	0	1	1	508	513	1	515	38	7	
7	0	0	1	1	515	513	0	512	38	7	
8	0	0	1	1	519	513	1	520	38	7	
9	0	0	1	1	505	513	1	528	38	7	
10	0	0	1	1	510	513	0	540	38	7	
11	0	0	1	1	503	513	1	533	38	7	
12	0	0	1	1	508	513	0	511	38	7	
13	0	0	1	1	511	513	1	509	38	7	
14	0	0	1	1	515	513	0	511	38	7	
15	0	0	1	1	507	513	1	521	38	7	
0	0	0	1	1	512	513	2	531	38	7	
1	0	0	1	1	503	513	1	485	38	7	
2	0	0	1	1	518	514	0	467	38	7	
3	0	0	1	1	509	513	1	464	38	7	
4	0	0	1	1	518	513	0	472	38	7	
5	0	0	1	1	512	513	1	488	38	7	
6	0	0	1	1	506	513	0	478	38	7	
7	0	0	1	1	515	513	1	465	38	7	
8	0	0	1	1	505	513	1	495	38	7	
9	0	0	1	1	510	513	1	505	38	7	
10	0	0	1	1	512	513	1	529	38	7	
11	0	0	1	1	514	513	1	543	38	7	
12	0	0	1	1	507	513	1	523	38	7	
13	0	0	1	1	515	513	1	523	38	7	
14	0	0	1	1	511	513	1	527	38	7	
15	0	0	1	1	503	513	0	540	38	7	
0	0	0	1	1	501	513	0	555	39	7	
1	0	0	1	1	513	513	1	531	38	7	
2	0	0	1	1	504	513	0	515	39	7	
3	0	0	1	1	515	513	1	516	38	7	
4	0	0	1	1	508	513	0	540	38	7	
5	0	0	1	1	513	513	1	544	38	7	
6	0	0	1	1	503	513	1	536	38	7	
7	0	0	1	1	509	513	1	511	39	7	
8	0	0	1	1	508	513	0	507	39	7	
9	0	0	1	1	507	513	1	516	39	7	
10	0	0	1	1	513	513	0	530	39	7	
11	0	0	1	1	511	513	3	542	38	7	
12	0	0	1	1	514	513	1	511	38	7	
13	0	0	1	1	515	514	1	501	38	7	
14	0	0	1	1	507	513	0	505	38	7	
15	0	0	1	1	512	513	1	517	38	7	
0	0	0	1	1	511	513	0	535	38	7	
1	0	0	1	1	507	513	1	521	38	7	
2	0	0	1	1	510	513	0	512	38	7	
3	0	0	1	1	516	513	1	528	38	7	
4	0	0	1	1	511	513	0	544	38	7	
5	0	0	1	1	510	513	1	558	38	7	
6	0	0	1	1	511	513	0	561	38	7	
7	0	0	1	1	511	513	1	529	38	7	
8	0	0	1	1	511	513	0	520	38	7	
9	0	0	1	1	511	513	1	523	38	7	
10	0	0	1	1	511	513	0	532	38	7	
11	0	0	1	1	507	513	1	548	38	7	
12	0	0	1	1	511	513	0	545	37	7	
13	0	0	1	1	511	513	1	529	38	7	
14	0	0	1	1	512	513	0	532	37	7	
15	0	0	1	1	515	513	1	536	38	7	
0	0	0	1	1	504	513	0	545	38	7	
1	0	0	1	1	508	513	1	533	37	7	
2	0	0	1	1	514	513	0	502	38	7	
3	0	0	1	1	513	513	1	496	38	7	
4	0	0	1	1	504	513	0	509	38	7	
5	0	0	1	1	504	513	1	531	38	7	
6	0	0	1	1	516	513	2	553	37	7	
7	0	0	1	1	515	513	1	519	38	7	
8	0	0	1	1	512	513	0	503	38	7	
9	0	0	1	1	506	513	1	500	38	7	
10	0	0	1	1	504	513	0	502	38	7	
11	0	0	1	1	510	513	1	511	38	7	
12	0	0	1	1	511	513	1	498	38	7	
13	0	0	1	1	505	513	1	458	38	7	
14	0	0	1	1	513	513	1	468	38	7	
15	0	0	1	1	506	513	1	486	38	7	
0	0	0	1	1	516	513	1	508	38	7	
1	0	0	1	1	514	513	1	518	38	7	
2	0	0	1	1	515	512	1	498	38	7	
3	0	0	1	1	516	513	0	496	38	7	
4	0	0	1	1	505	513	1	502	38	7	
5	0	0	1	1	510	513	0	514	38	7	
6	0	0	1	1	511	513	1	531	38	7	
7	0	0	1	1	512	513	0	508	38	7	
8	0	0	1	1	511	513	1	492	38	7	
9	0	0	1	1	512	513	0	488	38	7	
10	0	0	1	1	508	513	1	495	38	7	
11	0	0	1	1	506	513	0	510	38	7	
12	0	0	1	1	509	513	1	503	38	7	
13	0	0	1	1	515	513	0	488	38	7	
14	0	0	1	1	516	513	1	482	38	7	
15	0	0	1	1	505	513	0	491	38	7	
0	0	0	1	1	513	513	1	499	38	7	
1	0	0	1	1	509	513	2	507	38	7	
2	0	0	1	1	508	513	1	462	38	7	
3	0	0	1	1	512	513	0	450	38	7	
4	0	0	1	1	508	513	1	453	38	7	
5	0	0	1	1	511	513	0	471	38	7	
6	0	0	1	1	510	513	1	492	38	7	
7	0	0	1	1	507	513	1	471	38	7	
8	0	0	1	1	512	513	0	455	38	7	
9	0	0	1	1	509	513	1	473	38	7	
10	0	0	1	1	511	513	0	500	38	7	
11	0	0	1	1	509	513	1	528	38	7	
12	0	0	1	1	502	513	1	539	38	7	
13	0	0	1	1	512	513	1	510	38	7	
14	0	0	1	1	511	513	0	504	38	7	
15	0	0	1	1	516	513	1	508	38	7	
0	0	0	1	1	520	513	0	520	38	7	
1	0	0	1	1	512	513	1	536	38	7	
2	0	0	1	1	513	513	0	507	38	7	
3	0	0	1	1	508	513	1	490	38	7	
4	0	0	1	1	507	513	0	492	38	7	
5	0	0	1	1	510	513	1	505	38	7	
6	0	0	1	1	512	513	0	526	38	7	
7	0	0	1	1	512	513	1	534	38	7	
8	0	0	1	1	505	513	1	526	38	7	
9	0	0	1	1	513	513	0	531	38	7	
10	0	0	1	1	510	513	1	537	38	7	
11	0	0	1	1	511	513	0	550	38	7	
12	0	0	1	1	507	513	3	563	38	7	
13	0	0	1	1	515	513	0	531	38	7	
14	0	0	1	1	512	513	1	515	38	7	
15	0	0	1	1	514	513	0	515	38	7	
0	0	0	1	1	513	513	1	521	38	7	
1	0	0	1	1	508	513	0	535	38	7	
2	0	0	1	1	511	513	1	518	38	7	
3	0	0	1	1	514	513	0	495	38	7	
4	0	0	1	1	507	513	1	503	38	7	
5	0	0	1	1	511	513	0	515	38	7	
6	0	0	1	1	512	513	1	535	38	7	
7	0	0	1	1	509	513	0	544	38	7	
8	0	0	1	1	514	513	1	517	38	7	
9	0	0	1	1	513	512	0	511	38	7	
10	0	0	1	1	509	513	1	515	38	7	
11	0	0	1	1	510	513	0	519	38	7	
12	0	0	1	1	505	513	1	524	38	7	
13	0	0	1	1	510	513	0	504	38	7	
14	0	0	1	1	516	512	1	492	38	7	
15	0	0	1	1	513	513	0	498	38	7	
0	0	0	1	1	505	512	1	506	38	7	
1	0	0	1	1	516	513	1	523	38	7	
2	0	0	1	1	511	513	1	518	38	7	
3	0	0	1	1	508	512	1	500	38	7	
4	0	0	1	1	507	513	0	495	38	7	
5	0	0	1	1	504	513	1	504	38	7	
6	0	0	1	1	510	513	0	520	38	7	
7	0	0	1	1	504	513	3	537	38	7	
8	0	0	1	1	509	512	0	513	38	7	
9	0	0	1	1	512	513	1	508	38	7	
10	0	0	1	1	506	512	0	507	38	7	
11	0	0	1	1	513	513	1	516	38	7	
12	0	0	1	1	510	513	0	522	38	7	
13	0	0	1	1	510	512	1	500	38	7	
14	0	0	1	1	507	513	0	479	38	7	
15	0	0	1	1	507	512	1	488	38	7	
0	0	0	1	1	513	513	0	507	38	7	
1	0	0	1	1	512	513	1	528	38	7	
2	0	0	1	1	512	512	0	539	38	7	
3	0	0	1	1	502	513	1	524	38	7	
4	0	0	1	1	513	513	0	525	38	7	
5	0	0	1	1	512	513	1	529	38	7	
6	0	0	1	1	512	513	0	535	38	7	
7	0	0	1	1	511	513	1	543	38	7	
8	0	0	1	1	512	513	0	523	38	7	
9	0	0	1	1	509	513	1	508	38	7	
10	0	0	1	1	509	513	0	509	38	7	
11	0	0	1	1	505	513	1	521	38	7	
12	0	0	1	1	511	513	1	536	38	7	
13	0	0	1	1	511	513	1	528	38	7	
14	0	0	1	1	512	513	1	508	38	7	
15	0	0	1	1	509	513	1	507	38	7	
0	0	0	1	1	511	513	1	510	38	7	
1	0	0	1	1	516	513	0	519	38	7	
2	0	0	1	1	512	513	3	536	38	7	
3	0	0	1	1	511	513	0	499	38	7	
4	0	0	1	1	509	513	1	495	38	7	
5	0	0	1	1	512	513	0	505	38	7	
6	0	0	1	1	507	513	1	521	38	7	
7	0	0	1	1	512	513	0	542	38	7	
8	0	0	1	1	507	513	1	529	38	7	
9	0	0	1	1	501	512	1	517	38	7	
10	0	0	1	1	505	512	0	530	38	7	
11	0	0	1	1	511	512	1	548	38	7	
12	0	0	1	1	514	513	0	560	38	7	
13	0	0	1	1	516	513	1	551	38	7	
14	0	0	1	1	514	512	0	511	38	7	
15	0	0	1	1	510	512	1	497	38	7	
0	0	0	1	1	513	512	0	496	38	7	
1	0	0	1	1	512	512	1	501	38	7	
2	0	0	1	1	511	512	0	507	38	7	
3	0	0	1	1	508	512	1	488	38	7	
4	0	0	1	1	511	512	0	485	38	7	
5	0	0	1	1	511	512	1	493	38	7	
6	0	0	1	1	509	512	1	505	38	7	
7	0	0	1	1	507	512	1	514	38	7	
8	0	0	1	1	501	512	1	505	38	7	
9	0	0	1	1	505	513	1	480	38	7	
10	0	0	1	1	503	512	1	477	38	7	
11	0	0	1	1	512	512	0	484	38	7	
12	0	0	1	1	513	512	1	496	38	7	
13	0	0	1	1	511	513	1	512	38	7	
14	0	0	1	1	516	512	1	473	38	7	
15	0	0	1	1	510	513	0	464	38	7	
0	0	0	1	1	508	512	1	472	38	7	
1	0	0	1	1	509	513	0	488	38	7	
2	0	0	1	1	516	513	1	511	38	7	
3	0	0	1	1	518	513	1	499	38	7	
4	0	0	1	1	511	512	1	485	38	7	
5	0	0	1	1	513	513	0	497	38	7	
6	0	0	1	1	504	513	0	513	38	7	
7	0	0	1	1	510	513	1	531	38	7	
8	0	0	1	1	513	513	1	544	38	7	
9	0	0	1	1	514	513	1	528	38	7	
10	0	0	1	1	508	513	0	527	38	7	
11	0	0	1	1	504	513	1	527	38	7	
12	0	0	1	1	511	513	0	529	38	7	
13	0	0	1	1	509	513	1	536	38	7	
14	0	0	1	1	512	513	0	529	38	7	
15	0	0	1	1	514	513	0	527	38	7	
0	0	0	1	1	509	513	0	526	38	7	
1	0	0	1	1	508	513	1	531	38	7	
2	0	0	1	1	508	513	0	542	38	7	
3	0	0	1	1	510	513	1	528	38	7	
4	0	0	1	1	504	513	0	498	38	7	
5	0	0	1	1	507	512	1	493	38	7	
6	0	0	1	1	516	512	1	495	38	7	
7	0	0	1	1	511	513	1	503	38	7	
8	0	0	1	1	507	513	1	519	38	7	
9	0	0	1	1	510	513	0	473	38	7	
10	0	0	1	1	512	512	1	452	38	7	
11	0	0	1	1	505	512	0	454	38	7	
12	0	0	1	1	510	512	1	460	38	7	
13	0	0	1	1	504	512	0	472	38	7	
14	0	0	1	1	517	513	1	460	38	7	
15	0	0	1	1	520	512	0	450	38	7	
0	0	0	1	1	509	512	1	471	38	7	
1	0	0	1	1	509	512	0	494	38	7	
2	0	0	1	1	508	512	1	520	38	7	
3	0	0	1	1	512	512	1	533	38	7	
4	0	0	1	1	507	512	1	515	38	7	
5	0	0	1	1	507	512	1	517	38	7	
6	0	0	1	1	511	512	0	529	38	7	
7	0	0	1	1	511	512	1	541	38	7	
8	0	0	1	1	509	512	0	558	38	7	
9	0	0	1	1	515	512	1	538	38	7	
10	0	0	1	1	512	512	0	534	38	7	
11	0	0	1	1	509	512	1	536	38	7	
12	0	0	1	1	506	512	1	541	38	7	
13	0	0	1	1	507	512	1	557	38	7	
14	0	0	1	1	504	512	1	545	38	7	
15	0	0	1	1	519	512	0	513	38	7	
0	0	0	1	1	513	513	1	508	38	7	
1	0	0	1	1	508	512	0	518	38	7	
2	0	0	1	1	510	513	1	534	38	7	
3	0	0	1	1	507	513	0	548	38	7	
4	0	0	1	1	516	513	1	509	38	7	
5	0	0	1	1	508	513	0	496	38	7	
6	0	0	1	1	513	512	1	495	38	7	
7	0	0	1	1	513	513	0	503	38	7	
8	0	0	1	1	513	513	0	521	38	7	
9	0	0	1	1	508	513	1	507	38	7	
10	0	0	1	1	510	513	0	492	38	7	
11	0	0	1	1	508	512	1	503	38	7	
12	0	0	1	1	503	513	0	522	38	7	
13	0	0	1	1	512	513	1	540	38	7	
14	0	0	1	1	515	513	0	544	38	7	
15	0	0	1	1	520	513	1	510	38	7	
0	0	0	1	1	515	513	0	502	38	7	
1	0	0	1	1	512	513	1	503	38	7	
2	0	0	1	1	513	513	1	510	38	7	
3	0	0	1	1	507	513	0	524	38	7	
4	0	0	1	1	512	512	1	509	38	7	
5	0	0	1	1	509	512	0	512	38	7	
6	0	0	1	1	506	513	1	523	38	7	
7	0	0	1	1	512	513	0	535	38	7	
8	0	0	1	1	504	513	1	550	38	7	
9	0	0	1	1	507	513	0	538	38	7	
10	0	0	1	1	511	513	1	516	38	7	
11	0	0	1	1	513	513	0	516	38	7	
12	0	0	1	1	512	513	1	543	38	7	
13	0	0	1	1	511	513	0	542	38	7	
14	0	0	1	1	507	512	1	557	38	6	
15	0	0	1	1	508	513	1	515	38	7	
0	0	0	1	1	508	512	0	504	38	7	
1	0	0	1	1	506	512	1	513	38	7	
2	0	0	1	1	512	513	0	527	38	7	
3	0	0	1	1	512	513	1	539	38	7	
4	0	0	1	1	509	513	0	524	38	7	
5	0	0	1	1	511	512	1	512	38	7	
6	0	0	1	1	511	513	0	519	38	7	
7	0	0	1	1	510	513	0	529	38	7	
8	0	0	1	1	514	513	1	540	38	7	
9	0	0	1	1	513	513	0	538	38	7	
10	0	0	1	1	515	513	1	511	38	7	
11	0	0	1	1	508	512	0	507	38	7	
12	0	0	1	1	512	513	1	511	38	7	
13	0	0	1	1	502	513	0	525	38	7	
14	0	0	1	1	514	513	1	535	38	7	
15	0	0	1	1	508	513	0	508	38	7	
0	0	0	1	1	514	512	0	502	38	7	
1	0	0	1	1	511	512	1	500	38	7	
2	0	0	1	1	518	513	0	503	38	7	
3	0	0	1	1	509	513	1	515	38	7	
4	0	0	1	1	502	513	0	509	38	7	
5	0	0	1	1	510	512	1	499	38	7	
6	0	0	1	1	508	513	1	502	38	7	
7	0	0	1	1	507	512	0	511	38	7	
8	0	0	1	1	514	513	1	522	38	7	
9	0	0	1	1	508	511	0	534	38	7	
10	0	0	1	1	509	513	1	493	38	7	
11	0	0	1	1	508	513	0	483	38	7	
12	0	0	1	1	507	512	1	486	38	7	
13	0	0	1	1	506	513	0	496	38	7	
14	0	0	1	1	515	513	0	513	38	7	
15	0	0	1	1	515	512	1	490	38	7	
0	0	0	1	1	507	512	0	468	38	7	
1	0	0	1	1	509	512	1	471	38	7	
2	0	0	1	1	515	512	0	480	38	7	
3	0	0	1	1	511	513	1	497	38	7	
4	0	0	1	1	515	513	0	495	38	7	
5	0	0	1	1	505	512	1	475	38	7	
6	0	0	1	1	509	512	0	479	38	7	
7	0	0	1	1	512	512	1	497	38	7	
8	0	0	1	1	513	513	1	519	38	7	
9	0	0	1	1	510	513	1	542	38	7	
10	0	0	1	1	510	512	1	511	38	7	
11	0	0	1	1	514	513	1	512	38	7	
12	0	0	1	1	506	512	1	500	38	7	
13	0	0	1	1	511	513	0	509	38	7	
14	0	0	1	1	505	512	1	530	38	7	
15	0	0	1	1	507	512	1	533	38	7	
0	0	0	1	1	510	512	1	524	38	7	
1	0	0	1	1	515	512	0	529	38	6	
2	0	0	1	1	513	512	1	540	38	7	
3	0	0	1	1	512	512	0	548	38	7	
4	0	0	1	1	505	511	1	551	38	7	
5	0	0	1	1	514	512	0	514	38	7	
6	0	0	1	1	509	512	1	497	38	7	
7	0	0	1	1	500	512	1	493	38	7	
8	0	0	1	1	514	512	1	500	38	7	
9	0	0	1	1	510	512	1	514	38	7	
10	0	0	1	1	514	512	1	506	38	7	
11	0	0	1	1	510	512	1	505	38	6	
12	0	0	1	1	504	512	0	519	38	7	
13	0	0	1	1	511	512	1	532	38	7	
14	0	0	1	1	515	512	0	547	38	7	
15	0	0	1	1	507	512	1	541	38	7	
0	0	0	1	1	506	512	0	513	38	7	
1	0	0	1	1	519	512	1	509	38	7	
2	0	0	1	1	513	512	1	517	38	7	
3	0	0	1	1	504	512	1	525	38	7	
4	0	0	1	1	515	512	1	536	38	7	
5	0	0	1	1	507	512	0	496	38	6	
6	0	0	1	1	517	514	1	479	38	7	
7	0	0	1	1	507	512	0	475	38	7	
8	0	0	1	1	510	512	1	488	38	7	
9	0	0	1	1	515	512	1	505	38	7	
10	0	0	1	1	511	512	0	500	38	7	
11	0	0	1	1	510	512	1	492	38	7	
12	0	0	1	1	510	512	0	508	38	7	
13	0	0	1	1	509	512	1	524	38	7	
14	0	0	1	1	507	513	0	543	38	7	
15	0	0	1	1	512	512	1	551	38	6	
0	0	0	1	1	513	512	0	512	38	7	
1	0	0	1	1	512	512	0	497	38	7	
2	0	0	1	1	518	512	1	494	38	7	
3	0	0	1	1	505	512	0	501	38	7	
4	0	0	1	1	512	512	1	515	38	7	
5	0	0	1	1	511	513	0	496	38	7	
6	0	0	1	1	515	512	1	483	38	6	
7	0	0	1	1	507	512	0	495	38	7	
8	0	0	1	1	512	512	1	508	38	7	
9	0	0	1	1	511	512	0	518	38	7	
10	0	0	1	1	500	513	1	510	38	7	
11	0	0	1	1	514	512	1	480	38	7	
12	0	0	1	1	511	512	0	483	38	7	
13	0	0	1	1	509	512	1	493	38	7	
14	0	0	1	1	511	512	0	505	38	7	
15	0	0	1	1	506	512	3	523	38	7	
0	0	0	1	1	513	512	1	477	38	7	
1	0	0	1	1	509	513	0	451	38	7	
2	0	0	1	1	509	512	1	448	38	7	
3	0	0	1	1	512	512	0	461	38	7	
4	0	0	1	1	511	512	1	481	38	7	
5	0	0	1	1	512	512	1	467	38	7	
6	0	0	1	1	510	512	1	453	38	7	
7	0	0	1	1	513	512	1	469	37	7	
8	0	0	1	1	510	512	0	494	37	7	
9	0	0	1	1	514	512	1	524	37	7	
10	0	0	1	1	504	512	0	532	37	7	
11	0	0	1	1	510	512	1	502	37	7	
12	0	0	1	1	504	512	1	495	37	7	
13	0	0	1	1	517	512	0	490	37	7	
14	0	0	1	1	516	512	1	495	37	7	
15	0	0	1	1	514	512	0	503	37	7	
0	0	0	1	1	506	512	1	475	37	7	
1	0	0	1	1	513	512	0	466	37	7	
2	0	0	1	1	508	512	1	472	37	7	
3	0	0	1	1	511	512	1	482	37	7	
4	0	0	1	1	510	512	0	500	37	7	
5	0	0	1	1	500	512	1	496	37	7	
6	0	0	1	1	511	512	0	473	38	6	
7	0	0	1	1	519	512	1	480	38	7	
8	0	0	1	1	508	512	0	496	38	7	
9	0	0	1	1	504	512	1	515	38	7	
10	0	0	1	1	506	513	0	531	38	6	
11	0	0	1	1	509	512	1	496	38	7	
12	0	0	1	1	514	512	0	491	38	7	
13	0	0	1	1	507	512	1	490	38	7	
14	0	0	1	1	506	512	0	505	38	7	
15	0	0	1	1	512	512	1	525	38	7	
0	0	0	1	1	508	512	0	505	38	7	
1	0	0	1	1	514	512	1	488	38	7	
2	0	0	1	1	517	512	0	503	38	7	
3	0	0	1	1	514	512	1	519	38	7	
4	0	0	1	1	510	512	0	543	38	7	
5	0	0	1	1	509	513	1	558	38	7	
6	0	0	1	1	502	512	0	537	38	7	
7	0	0	1	1	511	512	1	527	38	7	
8	0	0	1	1	518	512	0	531	38	7	
9	0	0	1	1	506	512	0	541	38	7	
10	0	0	1	1	510	512	1	557	38	7	
11	0	0	1	1	508	512	1	541	38	7	
12	0	0	1	1	507	512	0	539	38	7	
13	0	0	1	1	514	512	0	544	38	7	
14	0	0	1	1	506	512	1	555	38	7	
15	0	0	1	1	505	512	0	564	38	7	
0	0	0	1	1	506	512	1	548	38	7	
1	0	0	1	1	517	512	0	517	38	7	
2	0	0	1	1	503	512	1	507	38	7	
3	0	0	1	1	509	512	0	513	38	7	
4	0	0	1	1	517	512	1	529	38	7	
5	0	0	1	1	513	511	0	543	38	6	
6	0	0	1	1	507	512	1	510	38	7	
7	0	0	1	1	515	512	0	497	38	7	
8	0	0	1	1	510	512	1	498	38	7	
9	0	0	1	1	512	512	0	509	38	7	
10	0	0	1	1	511	512	1	527	38	7	
11	0	0	1	1	508	512	1	512	38	7	
12	0	0	1	1	505	512	1	493	38	7	
13	0	0	1	1	509	512	1	497	38	7	
14	0	0	1	1	508	512	0	511	38	7	
15	0	0	1	1	507	512	1	540	38	7	
0	0	0	1	1	511	512	0	528	38	7	
1	0	0	1	1	511	512	1	495	38	7	
2	0	0	1	1	510	512	0	490	38	7	
3	0	0	1	1	508	512	1	498	38	7	
4	0	0	1	1	516	512	0	513	38	7	
5	0	0	1	1	513	512	1	535	38	7	
6	0	0	1	1	508	512	0	496	38	7	
7	0	0	1	1	504	512	0	482	38	7	
8	0	0	1	1	501	512	0	483	38	7	
9	0	0	1	1	513	512	0	499	38	7	
10	0	0	1	1	511	512	1	517	38	7	
11	0	0	1	1	517	512	0	510	38	7	
12	0	0	1	1	511	512	1	491	38	7	
13	0	0	1	1	507	512	0	489	38	7	
14	0	0	1	1	510	512	1	497	38	7	
15	0	0	1	1	509	512	0	512	38	7	
0	0	0	1	1	513	511	1	528	38	7	
1	0	0	1	1	509	512	0	494	37	7	
2	0	0	1	1	510	512	0	493	38	7	
3	0	0	1	1	512	512	1	496	38	7	
4	0	0	1	1	504	512	0	508	38	7	
5	0	0	1	1	510	512	1	528	38	7	
6	0	0	1	1	512	512	0	522	38	7	
7	0	0	1	1	513	512	1	513	38	7	
8	0	0	1	1	508	512	0	518	38	7	
9	0	0	1	1	515	512	1	532	38	7	
10	0	0	1	1	513	512	1	553	38	7	
11	0	0	1	1	511	512	1	567	38	7	
12	0	0	1	1	505	512	1	533	38	6	
13	0	0	1	1	507	512	0	529	38	7	
14	0	0	1	1	511	512	1	539	38	7	
15	0	0	1	1	508	512	0	557	38	7	
0	0	0	1	1	514	512	1	573	38	7	
1	0	0	1	1	513	512	0	540	38	7	
2	0	0	1	1	508	512	0	522	38	7	
3	0	0	1	1	505	512	1	523	38	7	
4	0	0	1	1	512	512	0	535	38	7	
5	0	0	1	1	507	512	1	549	38	7	
6	0	0	1	1	512	512	0	537	38	6	
7	0	0	1	1	513	512	1	516	38	6	
8	0	0	1	1	509	512	0	517	38	7	
9	0	0	1	1	506	512	1	529	38	7	
10	0	0	1	1	510	512	0	546	38	7	
11	0	0	1	1	509	510	1	558	38	7	
12	0	0	1	1	511	512	0	527	38	7	
13	0	0	1	1	513	512	1	520	38	7	
14	0	0	1	1	512	512	1	527	38	7	
15	0	0	1	1	512	512	0	539	38	7	
0	0	0	1	1	508	512	1	551	38	6	
1	0	0	1	1	515	512	0	536	38	6	
2	0	0	1	1	513	512	1	520	38	6	
3	0	0	1	1	511	512	0	523	38	6	
4	0	0	1	1	503	512	1	534	38	7	
5	0	0	1	1	511	512	1	545	38	7	
6	0	0	1	1	505	512	0	541	38	7	
7	0	0	1	1	509	512	1	522	38	7	
8	0	0	1	1	513	512	0	522	38	7	
9	0	0	1	1	509	512	1	531	38	7	
10	0	0	1	1	511	512	0	543	38	7	
11	0	0	1	1	511	512	1	549	38	7	
12	0	0	1	1	513	512	0	503	38	6	
13	0	0	1	1	510	513	2	473	38	7	
14	0	0	1	1	509	512	0	468	38	7	
15	0	0	1	1	509	512	1	473	38	7	
0	0	0	1	1	519	512	1	487	38	7	
1	0	0	1	1	512	512	0	484	38	7	
2	0	0	1	1	508	512	1	480	38	7	
3	0	0	1	1	508	512	0	486	38	7	
4	0	0	1	1	507	512	1	495	38	7	
5	0	0	1	1	510	512	0	506	38	6	
6	0	0	1	1	509	511	1	518	38	6	
7	0	0	1	1	510	512	0	490	38	6	
8	0	0	1	1	516	512	1	490	38	7	
9	0	0	1	1	516	512	0	496	38	7	
10	0	0	1	1	510	512	1	515	38	7	
11	0	0	1	1	511	512	0	533	38	7	
12	0	0	1	1	512	512	1	523	38	7	
13	0	0	1	1	504	512	1	519	38	6	
14	0	0	1	1	507	512	0	528	38	7	
15	0	0	1	1	511	512	1	540	38	6	
0	0	0	1	1	504	512	0	556	38	7	
1	0	0	1	1	506	512	1	546	38	7	
2	0	0	1	1	507	512	0	515	38	7	
3	0	0	1	1	516	512	1	510	38	7	
4	0	0	1	1	511	512	0	514	38	7	
5	0	0	1	1	508	512	1	527	38	7	
6	0	0	1	1	513	512	2	539	38	6	
7	0	0	1	1	505	512	0	521	38	7	
8	0	0	1	1	511	513	1	517	38	7	
9	0	0	1	1	507	512	0	535	38	7	
10	0	0	1	1	511	512	1	525	38	7	
11	0	0	1	1	511	513	0	535	38	7	
12	0	0	1	1	505	512	1	511	38	7	
13	0	0	1	1	513	512	0	483	38	7	
14	0	0	1	1	518	512	1	502	38	7	
15	0	0	1	1	507	513	0	498	38	7	
0	0	0	1	1	512	512	1	513	38	7	
1	0	0	1	1	515	513	1	523	38	7	
2	0	0	1	1	512	512	1	502	38	7	
3	0	0	1	1	515	512	0	503	38	7	
4	0	0	1	1	510	513	1	512	38	7	
5	0	0	1	1	514	513	1	527	38	7	
6	0	0	1	1	513	513	0	543	38	7	
7	0	0	1	1	511	512	1	524	38	7	
8	0	0	1	1	511	512	0	513	38	7	
9	0	0	1	1	509	512	1	516	38	7	
10	0	0	1	1	502	512	0	529	38	7	
11	0	0	1	1	514	513	1	545	38	7	
12	0	0	1	1	507	513	0	539	38	7	
13	0	0	1	1	512	512	1	511	38	7	
14	0	0	1	1	511	512	0	511	38	7	
15	0	0	1	1	510	512	1	514	38	7	
0	0	0	1	1	510	512	0	532	38	7	
1	0	0	1	1	516	513	3	553	38	6	
2	0	0	1	1	511	512	0	537	38	7	
3	0	0	1	1	508	513	1	535	38	7	
4	0	0	1	1	512	512	1	540	38	7	
5	0	0	1	1	509	513	0	544	38	7	
6	0	0	1	1	511	513	1	549	38	7	
7	0	0	1	1	511	512	0	514	38	6	
8	0	0	1	1	509	512	1	480	38	6	
9	0	0	1	1	516	512	0	484	38	6	
10	0	0	1	1	510	512	1	498	38	7	
11	0	0	1	1	510	512	0	512	38	7	
12	0	0	1	1	512	513	1	512	38	7	
13	0	0	1	1	508	512	0	482	38	7	
14	0	0	1	1	512	512	1	478	38	7	
15	0	0	1	1	512	512	1	485	38	6	
0	0	0	1	1	505	512	0	496	38	6	
1	0	0	1	1	503	512	1	509	38	6	
2	0	0	1	1	511	512	0	498	38	6	
3	0	0	1	1	511	512	0	496	38	7	
4	0	0	1	1	506	512	0	515	38	7	
5	0	0	1	1	510	512	1	521	38	7	
6	0	0	1	1	510	512	0	535	38	7	
7	0	0	1	1	510	512	1	520	38	7	
8	0	0	1	1	514	512	0	492	38	6	
9	0	0	1	1	515	512	1	489	38	6	
10	0	0	1	1	516	512	0	497	38	6	
11	0	0	1	1	511	512	1	510	38	6	
12	0	0	1	1	516	512	0	528	38	6	
13	0	0	1	1	505	512	1	496	38	6	
14	0	0	1	1	502	512	1	483	38	7	
15	0	0	1	1	510	512	0	493	38	6	
0	0	0	1	1	512	512	1	496	38	6	
1	0	0	1	1	510	512	0	508	38	6	
2	0	0	1	1	505	512	1	489	38	6	
3	0	0	1	1	503	512	0	481	38	6	
4	0	0	1	1	509	512	1	497	38	6	
5	0	0	1	1	512	512	0	507	38	6	
6	0	0	1	1	516	512	1	524	38	6	
7	0	0	1	1	511	512	1	528	38	6	
8	0	0	1	1	508	512	0	508	38	6	
9	0	0	1	1	511	512	1	510	38	6	
10	0	0	1	1	508	512	0	518	38	6	
11	0	0	1	1	517	512	1	527	38	6	
12	0	0	1	1	505	513	0	540	38	6	
13	0	0	1	1	511	513	1	525	38	6	
14	0	0	1	1	513	512	0	523	38	6	
15	0	0	1	1	509	512	1	527	38	6	
0	0	0	1	1	511	513	0	534	38	6	
1	0	0	1	1	507	512	1	549	38	6	
2	0	0	1	1	502	513	0	536	38	6	
3	0	0	1	1	515	512	1	514	38	6	
4	0	0	1	1	512	512	1	516	38	6	
5	0	0	1	1	515	512	0	527	38	6	
6	0	0	1	1	514	512	1	543	38	6	
7	0	0	1	1	505	511	0	556	38	6	
8	0	0	1	1	510	512	1	519	38	6	
9	0	0	1	1	509	512	0	507	38	6	
10	0	0	1	1	499	512	1	513	38	6	
11	0	0	1	1	511	513	0	525	38	6	
12	0	0	1	1	509	512	1	541	38	6	
13	0	0	1	1	518	512	0	514	38	6	
14	0	0	1	1	515	512	1	492	38	6	
15	0	0	1	1	508	512	0	490	38	6	
0	0	0	1	1	508	512	1	492	38	6	
1	0	0	1	1	511	512	0	499	38	6	
2	0	0	1	1	511	512	1	502	38	6	
3	0	0	1	1	512	512	0	488	38	6	
4	0	0	1	1	510	512	1	488	38	6	
5	0	0	1	1	507	512	0	496	38	6	
6	0	0	1	1	502	512	1	508	38	6	
7	0	0	1	1	509	512	1	524	38	7	
8	0	0	1	1	508	512	1	484	39	6	
9	0	0	1	1	510	513	1	464	39	6	
10	0	0	1	1	507	512	1	462	39	6	
11	0	0	1	1	509	512	1	472	39	6	
12	0	0	1	1	514	512	0	492	39	6	
13	0	0	1	1	505	512	1	481	39	6	
14	0	0	1	1	519	512	0	456	39	6	
15	0	0	1	1	510	512	1	457	39	6	
0	0	0	1	1	510	512	0	473	39	6	
1	0	0	1	1	509	512	1	490	39	6	
2	0	0	1	1	508	511	0	501	39	6	
3	0	0	1	1	519	512	1	459	39	6	
4	0	0	1	1	516	512	0	449	39	6	
5	0	0	1	1	503	512	1	451	39	6	
6	0	0	1	1	512	512	0	462	39	6	
7	0	0	1	1	513	512	1	481	39	6	
8	0	0	1	1	516	512	0	466	39	6	
9	0	0	1	1	510	512	1	458	39	6	
10	0	0	1	1	513	512	1	470	39	6	
11	0	0	1	1	508	512	1	488	39	6	
12	0	0	1	1	507	513	1	505	39	6	
13	0	0	1	1	504	513	0	510	39	6	
14	0	0	1	1	507	512	1	497	39	6	
15	0	0	1	1	519	512	0	496	39	6	
0	0	0	1	1	513	512	1	504	39	6	
1	0	0	1	1	509	512	0	518	39	6	
2	0	0	1	1	508	513	2	530	39	6	
3	0	0	1	1	516	512	1	500	39	6	
4	0	0	1	1	512	513	0	490	39	6	
5	0	0	1	1	506	512	1	487	39	6	
6	0	0	1	1	514	512	0	495	39	6	
7	0	0	1	1	509	513	1	502	39	6	
8	0	0	1	1	510	513	0	487	39	6	
9	0	0	1	1	514	512	1	475	39	6	
10	0	0	1	1	507	512	0	492	39	6	
11	0	0	1	1	509	512	0	516	39	6	
12	0	0	1	1	511	512	1	515	39	6	
13	0	0	1	1	511	512	1	518	39	6	
14	0	0	1	1	517	512	1	483	39	6	
15	0	0	1	1	513	512	0	481	39	6	
0	0	0	1	1	508	512	1	492	39	6	
1	0	0	1	1	512	512	0	517	39	6	
2	0	0	1	1	507	512	1	531	39	6	
3	0	0	1	1	517	512	0	521	39	6	
4	0	0	1	1	517	512	1	521	39	6	
5	0	0	1	1	510	512	1	532	39	6	
6	0	0	1	1	502	512	0	545	39	6	
7	0	0	1	1	507	512	1	560	39	6	
8	0	0	1	1	510	512	0	547	38	6	
9	0	0	1	1	511	512	1	517	39	6	
10	0	0	1	1	518	512	0	508	39	6	
11	0	0	1	1	517	512	1	509	38	6	
12	0	0	1	1	509	512	1	519	38	6	
13	0	0	1	1	510	512	2	528	38	6	
14	0	0	1	1	508	512	1	504	38	6	
15	0	0	1	1	503	512	0	504	38	6	
0	0	0	1	1	507	512	1	510	38	6	
1	0	0	1	1	514	512	0	518	38	6	
2	0	0	1	1	508	512	1	531	38	6	
3	0	0	1	1	509	512	1	512	38	6	
4	0	0	1	1	507	512	0	499	38	6	
5	0	0	1	1	512	512	1	513	38	6	
6	0	0	1	1	516	512	0	532	38	6	
7	0	0	1	1	510	512	1	554	38	6	
8	0	0	1	1	510	513	0	553	38	6	
9	0	0	1	1	507	512	1	522	38	6	
10	0	0	1	1	514	512	0	519	38	6	
11	0	0	1	1	516	512	1	524	38	6	
12	0	0	1	1	508	513	0	535	38	6	
13	0	0	1	1	510	513	1	546	38	6	
14	0	0	1	1	515	513	0	536	38	6	
15	0	0	1	1	513	512	0	536	38	6	
0	0	0	1	1	504	512	1	541	38	6	
1	0	0	1	1	508	512	0	551	38	6	
2	0	0	1	1	512	512	1	564	38	6	
3	0	0	1	1	510	512	0	556	38	6	
4	0	0	1	1	518	512	1	537	38	6	
5	0	0	1	1	512	512	0	539	38	6	
6	0	0	1	1	509	512	1	543	38	6	
7	0	0	1	1	507	512	0	554	38	6	
8	0	0	1	1	510	513	1	552	38	6	
9	0	0	1	1	513	512	1	514	38	6	
10	0	0	1	1	506	512	0	504	38	6	
11	0	0	1	1	511	512	1	508	38	6	
12	0	0	1	1	513	513	0	524	38	6	
13	0	0	1	1	512	512	1	545	38	6	
14	0	0	1	1	508	512	0	523	38	6	
15	0	0	1	1	511	512	1	515	38	6	
0	0	0	1	1	502	512	0	528	38	6	
1	0	0	1	1	510	512	1	544	38	6	
2	0	0	1	1	511	512	1	561	38	6	
3	0	0	1	1	503	513	0	568	38	6	
4	0	0	1	1	517	512	1	542	38	6	
5	0	0	1	1	520	513	0	540	38	6	
6	0	0	1	1	512	512	0	541	38	6	
7	0	0	1	1	505	513	1	542	38	6	
8	0	0	1	1	508	512	0	546	38	6	
9	0	0	1	1	513	512	1	511	38	6	
10	0	0	1	1	512	512	0	500	38	7	
11	0	0	1	1	511	512	1	503	38	6	
12	0	0	1	1	514	512	1	505	38	6	
13	0	0	1	1	501	513	0	514	38	6	
14	0	0	1	1	507	512	1	508	38	6	
15	0	0	1	1	504	512	0	494	38	6	
0	0	0	1	1	508	512	0	494	38	6	
1	0	0	1	1	513	512	1	502	38	6	
2	0	0	1	1	511	512	0	516	38	6	
3	0	0	1	1	515	510	1	529	38	6	
4	0	0	1	1	520	512	1	497	38	6	
5	0	0	1	1	512	512	0	489	38	6	
6	0	0	1	1	509	512	1	489	38	6	
7	0	0	1	1	512	512	0	501	38	6	
8	0	0	1	1	511	512	1	518	38	6	
9	0	0	1	1	506	512	1	502	38	6	
10	0	0	1	1	511	512	1	484	38	6	
11	0	0	1	1	505	512	1	488	38	6	
12	0	0	1	1	511	512	0	500	38	6	
13	0	0	1	1	510	512	1	512	38	6	
14	0	0	1	1	515	512	0	515	38	6	
15	0	0	1	1	511	512	0	498	38	6	
0	0	0	1	1	505	512	1	499	38	6	
1	0	0	1	1	510	512	0	503	38	7	
2	0	0	1	1	513	512	1	514	38	6	
3	0	0	1	1	511	512	0	531	38	7	
4	0	0	1	1	512	512	0	485	38	6	
5	0	0	1	1	513	513	2	480	38	6	
6	0	0	1	1	504	512	0	469	38	6	
7	0	0	1	1	505	512	1	479	38	6	
8	0	0	1	1	518	512	0	496	38	7	
9	0	0	1	1	513	512	1	485	38	6	
10	0	0	1	1	511	512	1	473	38	7	
11	0	0	1	1	512	512	0	483	38	7	
12	0	0	1	1	505	512	1	489	38	6	
13	0	0	1	1	513	513	0	508	38	6	
14	0	0	1	1	505	511	1	519	38	6	
15	0	0	1	1	512	512	0	481	38	6	
0	0	0	1	1	512	512	0	469	38	6	
1	0	0	1	1	512	512	1	473	38	6	
2	0	0	1	1	505	512	0	485	38	7	
3	0	0	1	1	509	513	1	506	38	7	
4	0	0	1	1	502	512	0	502	38	7	
5	0	0	1	1	518	512	1	509	38	6	
6	0	0	1	1	511	512	0	527	38	6	
7	0	0	1	1	511	512	1	543	38	6	
8	0	0	1	1	506	513	0	558	38	6	
9	0	0	1	1	511	512	1	544	38	6	
10	0	0	1	1	507	512	1	521	38	6	
11	0	0	1	1	518	512	0	531	38	6	
12	0	0	1	1	510	512	1	532	38	7	
13	0	0	1	1	509	512	0	547	38	7	
14	0	0	1	1	515	512	2	554	37	6	
15	0	0	1	1	512	512	0	505	38	7	
0	0	0	1	1	507	513	1	497	38	7	
1	0	0	1	1	513	512	0	477	38	7	
2	0	0	1	1	514	512	1	488	38	6	
3	0	0	1	1	512	512	1	506	38	6	
4	0	0	1	1	503	512	0	495	38	6	
5	0	0	1	1	512	512	1	481	38	6	
6	0	0	1	1	510	512	0	498	38	7	
7	0	0	1	1	510	512	1	518	38	7	
8	0	0	1	1	507	512	0	539	38	7	
9	0	0	1	1	508	512	1	543	38	7	
10	0	0	1	1	504	512	1	510	38	6	
11	0	0	1	1	511	512	0	497	38	6	
12	0	0	1	1	510	512	1	500	38	6	
13	0	0	1	1	509	512	0	510	37	6	
14	0	0	1	1	515	512	1	531	38	7	
15	0	0	1	1	514	512	0	518	38	6	
0	0	0	1	1	507	512	1	513	38	7	
1	0	0	1	1	499	512	0	516	38	7	
2	0	0	1	1	515	512	1	529	38	7	
3	0	0	1	1	508	512	1	540	38	7	
4	0	0	1	1	507	512	1	520	37	6	
5	0	0	1	1	514	512	1	480	38	6	
6	0	0	1	1	514	512	0	468	38	6	
7	0	0	1	1	513	512	1	472	37	6	
8	0	0	1	1	510	512	0	490	38	6	
9	0	0	1	1	508	512	2	505	37	6	
10	0	0	1	1	511	512	0	472	37	7	
11	0	0	1	1	509	512	1	463	38	7	
12	0	0	1	1	515	512	1	468	38	7	
13	0	0	1	1	509	512	0	497	38	7	
14	0	0	1	1	503	512	1	508	38	6	
15	0	0	1	1	508	512	0	502	38	6	
0	0	0	1	1	511	512	1	497	38	6	
1	0	0	1	1	510	512	0	512	38	6	
2	0	0	1	1	511	512	0	531	38	6	
3	0	0	1	1	504	512	1	547	38	6	
4	0	0	1	1	514	513	1	553	37	7	
5	0	0	1	1	509	512	1	530	37	7	
6	0	0	1	1	517	512	0	527	38	7	
7	0	0	1	1	507	512	1	530	38	7	
8	0	0	1	1	515	512	0	544	38	7	
9	0	0	1	1	513	513	1	563	38	7	
10	0	0	1	1	515	512	0	544	38	6	
11	0	0	1	1	512	512	0	539	38	7	
12	0	0	1	1	505	512	0	538	38	7	
13	0	0	1	1	504	512	1	543	38	7	
14	0	0	1	1	510	512	0	553	38	7	
15	0	0	1	1	512	512	1	537	38	7	
0	0	0	1	1	513	512	1	507	38	7	
1	0	0	1	1	503	512	0	500	38	7	
2	0	0	1	1	509	512	1	506	38	7	
3	0	0	1	1	510	512	0	515	38	7	
4	0	0	1	1	512	510	1	525	38	6	
5	0	0	1	1	511	512	0	491	38	6	
6	0	0	1	1	516	512	1	486	38	7	
7	0	0	1	1	512	512	0	491	38	6	
8	0	0	1	1	516	512	1	504	38	7	
9	0	0	1	1	517	512	0	519	38	7	
10	0	0	1	1	512	512	1	492	38	7	
11	0	0	1	1	510	512	1	472	38	7	
12	0	0	1	1	510	512	0	470	38	7	
13	0	0	1	1	511	512	1	475	38	7	
14	0	0	1	1	503	512	0	489	38	6	
15	0	0	1	1	505	512	1	488	38	6	
0	0	0	1	1	508	512	0	460	38	6	
1	0	0	1	1	510	512	0	457	38	7	
2	0	0	1	1	511	512	1	472	38	7	
3	0	0	1	1	505	512	0	488	38	7	
4	0	0	1	1	514	512	1	505	38	7	
5	0	0	1	1	512	512	0	473	38	7	
6	0	0	1	1	515	513	2	475	38	7	
7	0	0	1	1	507	512	0	471	38	7	
8	0	0	1	1	512	512	1	485	38	6	
9	0	0	1	1	508	512	0	505	38	6	
10	0	0	1	1	504	512	1	486	38	6	
11	0	0	1	1	510	512	0	458	38	6	
12	0	0	1	1	509	512	1	462	38	7	
13	0	0	1	1	516	512	0	474	38	7	
14	0	0	1	1	511	512	0	493	38	7	
15	0	0	1	1	505	511	1	506	38	7	
0	0	0	1	1	513	512	0	470	38	7	
1	0	0	1	1	517	512	1	466	38	7	
2	0	0	1	1	508	512	0	478	38	7	
3	0	0	1	1	512	512	1	497	38	6	
4	0	0	1	1	508	512	0	520	38	7	
5	0	0	1	1	509	512	1	514	38	6	
6	0	0	1	1	523	512	1	518	38	6	
7	0	0	1	1	513	512	0	529	38	7	
8	0	0	1	1	504	512	1	541	38	7	
9	0	0	1	1	507	512	0	556	38	7	
10	0	0	1	1	507	512	1	556	38	7	
11	0	0	1	1	507	512	0	544	38	7	
12	0	0	1	1	515	512	1	548	38	7	
13	0	0	1	1	504	512	0	546	38	7	
14	0	0	1	1	504	512	1	549	38	7	
15	0	0	1	1	511	512	2	556	38	6	
0	0	0	1	1	512	512	1	521	38	7	
1	0	0	1	1	511	513	1	510	38	7	
2	0	0	1	1	510	512	0	511	38	7	
3	0	0	1	1	505	512	1	524	38	7	
4	0	0	1	1	510	512	0	539	38	7	
5	0	0	1	1	505	512	1	524	38	7	
6	0	0	1	1	519	512	0	501	38	7	
7	0	0	1	1	507	512	1	509	38	7	
8	0	0	1	1	510	512	0	527	38	7	
9	0	0	1	1	503	512	1	540	38	7	
10	0	0	1	1	513	513	1	545	38	7	
11	0	0	1	1	513	512	1	528	38	7	
12	0	0	1	1	518	512	0	526	38	7	
13	0	0	1	1	513	512	0	532	38	7	
14	0	0	1	1	509	512	1	545	38	7	
15	0	0	1	1	515	512	1	561	38	7	
0	0	0	1	1	509	512	1	542	38	7	
1	0	0	1	1	508	512	0	533	38	7	
2	0	0	1	1	515	512	1	533	38	7	
3	0	0	1	1	515	512	0	541	38	7	
4	0	0	1	1	505	512	1	556	38	7	
5	0	0	1	1	507	513	0	550	38	7	
6	0	0	1	1	509	512	1	527	38	7	
7	0	0	1	1	515	512	1	527	38	7	
8	0	0	1	1	511	512	1	539	38	7	
9	0	0	1	1	501	513	1	553	38	7	
10	0	0	1	1	507	512	1	562	38	6	
11	0	0	1	1	518	512	1	514	38	7	
12	0	0	1	1	516	512	0	495	38	7	
13	0	0	1	1	504	512	1	499	38	7	
14	0	0	1	1	508	512	0	513	38	7	
15	0	0	1	1	513	512	1	530	38	7	
0	0	0	1	1	517	512	0	515	38	7	
1	0	0	1	1	507	512	1	492	38	7	
2	0	0	1	1	507	512	0	494	38	7	
3	0	0	1	1	506	512	0	506	38	7	
4	0	0	1	1	509	512	1	520	38	7	
5	0	0	1	1	505	512	0	520	38	6	
6	0	0	1	1	508	512	1	489	38	7	
7	0	0	1	1	511	512	0	483	38	7	
8	0	0	1	1	514	512	1	488	38	7	
9	0	0	1	1	512	512	0	503	38	7	
10	0	0	1	1	512	512	1	520	38	7	
11	0	0	1	1	508	512	1	494	38	7	
12	0	0	1	1	511	512	0	483	38	7	
13	0	0	1	1	512	512	1	486	38	7	
14	0	0	1	1	516	512	0	497	38	7	
15	0	0	1	1	511	512	1	511	38	7	
0	0	0	1	1	515	512	0	500	38	7	
1	0	0	1	1	510	512	1	479	38	7	
2	0	0	1	1	511	512	1	480	38	7	
3	0	0	1	1	508	512	0	489	38	7	
4	0	0	1	1	511	512	1	505	38	7	
5	0	0	1	1	506	510	0	519	38	7	
6	0	0	1	1	508	512	1	497	38	7	
7	0	0	1	1	511	512	0	504	38	7	
8	0	0	1	1	514	512	1	519	38	7	
9	0	0	1	1	505	512	0	535	38	7	
10	0	0	1	1	510	513	1	542	38	7	
11	0	0	1	1	508	512	0	510	37	7	
12	0	0	1	1	512	512	1	487	37	6	
13	0	0	1	1	510	512	1	491	37	7	
14	0	0	1	1	510	512	0	502	37	7	
15	0	0	1	1	517	512	1	511	37	7	
0	0	0	1	1	508	512	0	505	37	7	
1	0	0	1	1	507	512	1	479	37	7	
2	0	0	1	1	512	512	0	474	37	7	
3	0	0	1	1	511	512	1	475	37	7	
4	0	0	1	1	513	513	1	487	37	7	
5	0	0	1	1	507	513	1	504	36	7	
6	0	0	1	1	509	512	1	469	37	7	
7	0	0	1	1	508	514	0	454	37	7	
8	0	0	1	1	505	512	1	452	37	7	
9	0	0	1	1	516	512	0	470	37	7	
10	0	0	1	1	510	512	0	499	37	7	
11	0	0	1	1	513	512	1	499	37	7	
12	0	0	1	1	513	512	0	494	37	7	
13	0	0	1	1	514	512	1	512	37	7	
14	0	0	1	1	506	512	0	529	38	7	
15	0	0	1	1	511	512	1	550	38	7	
0	0	0	1	1	507	512	1	565	39	7	
1	0	0	1	1	508	512	1	551	40	7	
2	0	0	1	1	513	512	1	554	41	7	
3	0	0	1	1	507	512	0	561	42	7	
4	0	0	1	1	513	512	1	570	44	7	
5	0	0	1	1	509	512	0	575	45	7	
6	0	0	1	1	514	512	1	551	45	7	
7	0	0	1	1	511	512	0	538	44	6	
8	0	0	1	1	509	512	1	541	44	7	
9	0	0	1	1	516	512	1	551	43	7	
10	0	0	1	1	508	512	0	565	42	7	
11	0	0	1	1	505	512	1	556	40	7	
12	0	0	1	1	513	512	0	527	40	7	
13	0	0	1	1	506	512	1	516	39	7	
14	0	0	1	1	504	512	0	522	38	7	
15	0	0	1	1	512	512	1	536	37	7	
0	0	0	1	1	513	512	1	551	37	7	
1	0	0	1	1	511	512	1	536	37	7	
2	0	0	1	1	505	513	0	533	37	7	
3	0	0	1	1	507	512	1	531	37	7	
4	0	0	1	1	509	512	0	531	37	7	
5	0	0	1	1	510	512	1	539	38	7	
6	0	0	1	1	506	512	0	510	38	7	
7	0	0	1	1	509	512	1	479	38	7	
8	0	0	1	1	512	512	1	483	39	7	
9	0	0	1	1	513	512	1	496	39	7	
10	0	0	1	1	510	512	1	513	39	7	
11	0	0	1	1	514	512	0	519	39	7	
12	0	0	1	1	513	512	1	496	38	7	
13	0	0	1	1	514	512	0	496	38	7	
14	0	0	1	1	512	512	1	504	38	7	
15	0	0	1	1	511	512	0	534	38	7	
0	0	0	1	1	514	512	0	534	38	7	
1	0	0	1	1	518	512	1	515	38	7	
2	0	0	1	1	508	512	0	508	38	7	
3	0	0	1	1	509	512	1	514	38	7	
4	0	0	1	1	512	512	0	532	38	7	
5	0	0	1	1	505	512	1	546	38	7	
6	0	0	1	1	504	512	1	532	38	7	
7	0	0	1	1	512	512	1	505	38	7	
8	0	0	1	1	511	512	1	505	38	7	
9	0	0	1	1	507	512	1	533	38	7	
10	0	0	1	1	509	512	1	534	38	7	
11	0	0	1	1	511	511	0	553	38	7	
12	0	0	1	1	507	512	1	526	38	7	
13	0	0	1	1	514	512	0	522	38	7	
14	0	0	1	1	512	512	1	525	38	7	
15	0	0	1	1	511	512	0	535	38	7	
0	0	0	1	1	506	513	1	550	38	7	
1	0	0	1	1	510	512	1	525	38	7	
2	0	0	1	1	516	512	1	505	38	7	
3	0	0	1	1	509	512	1	509	38	7	
4	0	0	1	1	519	512	0	524	38	7	
5	0	0	1	1	512	512	1	538	38	7	
6	0	0	1	1	507	512	0	540	38	7	
7	0	0	1	1	507	513	1	504	38	7	
8	0	0	1	1	516	512	0	490	38	7	
9	0	0	1	1	509	512	1	481	38	7	
10	0	0	1	1	505	512	1	486	38	7	
11	0	0	1	1	515	513	0	503	38	7	
12	0	0	1	1	511	512	1	482	38	7	
13	0	0	1	1	507	513	0	480	39	7	
14	0	0	1	1	509	512	1	486	38	7	
15	0	0	1	1	518	512	0	505	39	7	
0	0	0	1	1	505	512	1	526	39	7	
1	0	0	1	1	507	512	0	520	38	7	
2	0	0	1	1	508	512	1	505	39	7	
3	0	0	1	1	516	512	1	504	39	7	
4	0	0	1	1	511	512	0	505	38	7	
5	0	0	1	1	508	512	1	511	38	7	
6	0	0	1	1	511	510	0	524	38	7	
7	0	0	1	1	513	512	1	499	38	7	
8	0	0	1	1	514	512	0	500	38	7	
9	0	0	1	1	511	512	1	505	38	7	
10	0	0	1	1	508	512	1	512	38	7	
11	0	0	1	1	509	512	0	521	38	7	
12	0	0	1	1	512	512	1	499	38	7	
13	0	0	1	1	511	512	0	486	38	6	
14	0	0	1	1	510	512	1	495	38	7	
15	0	0	1	1	507	512	0	503	38	7	
0	0	0	1	1	504	512	1	521	38	7	
1	0	0	1	1	513	512	1	517	38	7	
2	0	0	1	1	513	512	1	487	38	7	
3	0	0	1	1	513	512	1	488	38	7	
4	0	0	1	1	510	512	0	490	38	7	
5	0	0	1	1	508	512	1	501	38	7	
6	0	0	1	1	505	512	0	519	38	7	
7	0	0	1	1	519	512	1	487	38	7	
8	0	0	1	1	506	514	0	477	38	7	
9	0	0	1	1	506	512	1	472	38	7	
10	0	0	1	1	512	512	1	478	38	7	
11	0	0	1	1	509	512	1	489	38	7	
12	0	0	1	1	515	512	1	473	38	7	
13	0	0	1	1	508	512	0	463	38	7	
14	0	0	1	1	509	512	1	484	38	7	
15	0	0	1	1	503	512	0	510	38	7	
0	0	0	1	1	509	512	1	535	38	7	
1	0	0	1	1	515	512	0	544	38	7	
2	0	0	1	1	511	512	1	515	38	7	
3	0	0	1	1	517	512	0	512	38	7	
4	0	0	1	1	509	513	1	519	38	7	
5	0	0	1	1	506	512	1	529	38	7	
6	0	0	1	1	510	513	0	537	38	7	
7	0	0	1	1	507	512	1	520	38	7	
8	0	0	1	1	504	512	0	518	38	7	
9	0	0	1	1	518	512	1	525	38	7	
10	0	0	1	1	516	512	0	532	38	7	
11	0	0	1	1	513	512	1	539	38	7	
12	0	0	1	1	508	513	0	521	38	7	
13	0	0	1	1	510	512	1	481	38	7	
14	0	0	1	1	512	512	1	471	38	7	
15	0	0	1	1	507	512	1	478	38	7	
0	0	0	1	1	508	512	1	491	38	7	
1	0	0	1	1	513	512	2	504	38	7	
2	0	0	1	1	512	512	1	477	38	7	
3	0	0	1	1	505	513	0	475	38	7	
4	0	0	1	1	510	512	1	477	38	7	
5	0	0	1	1	507	512	0	486	38	7	
6	0	0	1	1	511	512	0	504	38	7	
7	0	0	1	1	505	512	1	491	37	7	
8	0	0	1	1	508	512	0	484	37	7	
9	0	0	1	1	509	512	1	499	37	7	
10	0	0	1	1	514	512	0	527	37	7	
11	0	0	1	1	505	512	1	551	37	7	
12	0	0	1	1	515	512	1	553	37	7	
13	0	0	1	1	513	512	1	516	37	7	
14	0	0	1	1	517	512	1	507	37	7	
15	0	0	1	1	513	512	0	508	37	7	
0	0	0	1	1	509	512	1	517	37	7	
1	0	0	1	1	510	512	0	524	37	7	
2	0	0	1	1	512	512	1	506	37	7	
3	0	0	1	1	507	512	0	503	37	7	
4	0	0	1	1	510	512	1	501	37	7	
5	0	0	1	1	509	512	0	514	37	7	
6	0	0	1	1	508	512	1	530	37	7	
7	0	0	1	1	507	512	0	516	37	7	
8	0	0	1	1	514	512	1	484	37	7	
9	0	0	1	1	512	512	1	480	37	7	
10	0	0	1	1	507	512	0	503	37	7	
11	0	0	1	1	507	512	1	526	37	7	
12	0	0	1	1	516	512	0	546	37	7	
13	0	0	1	1	512	512	1	504	37	7	
14	0	0	1	1	511	512	0	493	37	7	
15	0	0	1	1	507	513	1	494	37	7	
0	0	0	1	1	509	512	0	497	37	7	
1	0	0	1	1	515	513	1	507	37	7	
2	0	0	1	1	511	512	0	486	37	7	
3	0	0	1	1	506	512	1	471	37	7	
4	0	0	1	1	509	512	1	470	37	7	
5	0	0	1	1	511	512	1	486	37	7	
6	0	0	1	1	512	513	1	504	37	7	
7	0	0	1	1	512	512	0	506	37	7	
8	0	0	1	1	511	512	1	476	37	7	
9	0	0	1	1	517	512	0	475	37	7	
10	0	0	1	1	509	512	1	491	37	7	
11	0	0	1	1	510	512	0	514	37	7	
12	0	0	1	1	507	512	1	537	37	7	
13	0	0	1	1	519	512	0	523	37	7	
14	0	0	1	1	511	512	1	521	37	7	
15	0	0	1	1	505	512	0	524	37	7	
0	0	0	1	1	507	512	1	530	37	7	
1	0	0	1	1	508	513	1	539	37	7	
2	0	0	1	1	505	512	0	531	37	7	
3	0	0	1	1	511	512	1	520	37	7	
4	0	0	1	1	515	512	0	530	37	7	
5	0	0	1	1	509	512	1	541	37	7	
6	0	0	1	1	507	512	0	550	37	7	
7	0	0	1	1	508	511	1	559	37	7	
8	0	0	1	1	510	512	0	521	37	7	
9	0	0	1	1	514	512	1	515	37	7	
10	0	0	1	1	512	512	0	523	37	7	
11	0	0	1	1	516	512	1	540	37	7	
12	0	0	1	1	505	512	0	551	37	7	
13	0	0	1	1	510	512	1	534	37	7	
14	0	0	1	1	514	512	1	525	37	7	
15	0	0	1	1	510	512	0	532	37	7	
0	0	0	1	1	513	512	1	541	37	7	
1	0	0	1	1	507	512	0	552	37	7	
2	0	0	1	1	508	512	1	547	37	7	
3	0	0	1	1	510	512	0	515	37	7	
4	0	0	1	1	505	512	1	505	37	7	
5	0	0	1	1	504	512	0	506	37	7	
6	0	0	1	1	521	512	1	519	37	7	
7	0	0	1	1	514	512	1	533	36	7	
8	0	0	1	1	507	512	1	491	37	7	
9	0	0	1	1	516	513	1	475	37	7	
10	0	0	1	1	516	512	0	475	37	7	
11	0	0	1	1	509	512	1	488	37	7	
12	0	0	1	1	512	512	0	507	37	7	
13	0	0	1	1	508	512	1	494	37	7	
14	0	0	1	1	513	512	0	484	37	7	
15	0	0	1	1	510	512	1	500	37	7	
0	0	0	1	1	507	512	1	516	37	7	
1	0	0	1	1	510	512	0	533	37	7	
2	0	0	1	1	516	512	1	540	37	7	
3	0	0	1	1	508	512	0	507	36	7	
4	0	0	1	1	512	512	1	504	37	7	
5	0	0	1	1	508	512	0	514	37	7	
6	0	0	1	1	512	512	1	529	37	7	
7	0	0	1	1	511	512	0	554	37	7	
8	0	0	1	1	514	512	1	523	37	7	
9	0	0	1	1	509	512	1	516	37	7	
10	0	0	1	1	508	512	0	516	37	7	
11	0	0	1	1	509	512	1	524	37	7	
12	0	0	1	1	509	512	0	533	37	7	
13	0	0	1	1	505	512	1	519	37	7	
14	0	0	1	1	512	512	0	482	37	7	
15	0	0	1	1	507	512	0	473	37	7	
0	0	0	1	1	508	512	1	481	37	7	
1	0	0	1	1	508	512	1	500	37	7	
2	0	0	1	1	511	512	2	524	36	7	
3	0	0	1	1	512	512	0	502	37	7	
4	0	0	1	1	511	512	1	503	37	7	
5	0	0	1	1	511	512	0	518	37	7	
6	0	0	1	1	510	512	1	536	37	7	
7	0	0	1	1	511	512	0	548	37	7	
8	0	0	1	1	507	512	1	525	37	7	
9	0	0	1	1	509	512	0	498	37	7	
10	0	0	1	1	509	512	0	503	37	7	
11	0	0	1	1	511	512	1	519	37	7	
12	0	0	1	1	508	512	0	534	37	7	
13	0	0	1	1	515	512	1	533	36	7	
14	0	0	1	1	516	512	0	484	36	7	
15	0	0	1	1	508	512	1	475	37	7	
0	0	0	1	1	512	512	0	477	37	7	
1	0	0	1	1	518	512	1	487	36	7	
2	0	0	1	1	513	512	0	501	36	7	
3	0	0	1	1	513	512	1	470	36	7	
4	0	0	1	1	510	512	0	467	36	7	
5	0	0	1	1	506	512	0	470	36	7	
6	0	0	1	1	511	512	1	479	36	7	
7	0	0	1	1	504	512	0	508	36	7	
8	0	0	1	1	503	512	1	483	36	7	
9	0	0	1	1	508	512	0	466	36	7	
10	0	0	1	1	509	512	1	468	36	7	
11	0	0	1	1	511	512	0	479	36	7	
12	0	0	1	1	508	512	1	495	36	7	
13	0	0	1	1	508	510	0	515	36	7	
14	0	0	1	1	515	512	1	493	36	7	
15	0	0	1	1	509	512	1	496	36	7	
0	0	0	1	1	514	512	0	512	36	7	
1	0	0	1	1	511	512	1	526	36	7	
2	0	0	1	1	505	512	0	535	36	7	
3	0	0	1	1	509	512	1	504	36	7	
4	0	0	1	1	511	512	1	480	37	7	
5	0	0	1	1	515	512	1	484	37	7	
6	0	0	1	1	511	512	1	496	37	7	
7	0	0	1	1	511	512	1	516	37	7	
8	0	0	1	1	512	512	1	527	37	7	
9	0	0	1	1	508	512	0	507	37	7	
10	0	0	1	1	509	512	1	511	37	7	
11	0	0	1	1	507	512	0	527	37	7	
12	0	0	1	1	508	512	1	544	37	7	
13	0	0	1	1	508	512	0	564	37	7	
14	0	0	1	1	510	512	1	527	37	7	
15	0	0	1	1	502	514	1	514	37	7	
0	0	0	1	1	513	512	1	515	37	7	
1	0	0	1	1	509	512	1	518	37	7	
2	0	0	1	1	511	512	0	542	37	7	
3	0	0	1	1	508	512	1	524	37	7	
4	0	0	1	1	510	512	0	510	37	7	
5	0	0	1	1	517	512	1	514	37	7	
6	0	0	1	1	512	512	0	524	37	7	
7	0	0	1	1	514	512	1	537	37	7	
8	0	0	1	1	512	511	0	546	37	7	
9	0	0	1	1	508	512	1	511	37	7	
10	0	0	1	1	508	512	0	502	37	7	
11	0	0	1	1	513	512	1	499	37	7	
12	0	0	1	1	511	512	1	507	37	7	
13	0	0	1	1	508	512	0	525	37	7	
14	0	0	1	1	509	512	1	514	37	7	
15	0	0	1	1	505	512	0	513	37	7	
0	0	0	1	1	514	512	1	523	37	7	
1	0	0	1	1	517	512	0	537	37	7	
2	0	0	1	1	510	512	1	546	37	7	
3	0	0	1	1	505	512	0	536	37	7	
4	0	0	1	1	514	512	1	505	38	7	
5	0	0	1	1	512	512	0	497	38	7	
6	0	0	1	1	512	512	0	507	38	7	
7	0	0	1	1	511	512	1	519	38	7	
8	0	0	1	1	504	512	2	527	38	7	
9	0	0	1	1	503	512	1	485	38	7	
10	0	0	1	1	517	512	0	472	38	7	
11	0	0	1	1	504	512	1	483	38	7	
12	0	0	1	1	508	512	0	494	38	7	
13	0	0	1	1	512	512	1	513	38	7	
14	0	0	1	1	513	512	0	510	38	7	
15	0	0	1	1	512	512	1	509	38	7	
0	0	0	1	1	507	512	0	529	38	7	
1	0	0	1	1	510	512	0	551	38	7	
2	0	0	1	1	507	512	1	569	38	7	
3	0	0	1	1	515	512	1	573	38	7	
4	0	0	1	1	512	512	1	546	38	7	
5	0	0	1	1	512	512	0	544	38	7	
6	0	0	1	1	506	512	1	547	38	7	
7	0	0	1	1	503	512	0	555	38	7	
8	0	0	1	1	516	512	1	566	38	7	
9	0	0	1	1	510	512	0	547	38	7	
10	0	0	1	1	515	512	0	544	38	7	
11	0	0	1	1	511	512	0	539	38	7	
12	0	0	1	1	507	512	0	546	38	7	
13	0	0	1	1	513	512	1	549	38	7	
14	0	0	1	1	511	512	1	529	38	7	
15	0	0	1	1	506	512	1	508	38	7	
0	0	0	1	1	512	512	0	503	38	7	
1	0	0	1	1	512	512	1	510	38	7	
2	0	0	1	1	513	512	0	519	38	7	
3	0	0	1	1	505	512	1	530	38	7	
4	0	0	1	1	511	512	0	499	38	7	
5	0	0	1	1	505	512	1	495	38	7	
6	0	0	1	1	505	512	0	496	38	7	
7	0	0	1	1	509	512	1	506	38	7	
8	0	0	1	1	513	512	1	525	38	7	
9	0	0	1	1	512	512	1	514	38	7	
10	0	0	1	1	507	512	1	513	38	7	
11	0	0	1	1	512	512	0	527	38	7	
12	0	0	1	1	512	512	1	547	38	7	
13	0	0	1	1	515	512	0	557	38	7	
14	0	0	1	1	510	512	1	550	38	7	
15	0	0	1	1	508	512	1	507	38	7	
0	0	0	1	1	510	512	0	495	39	7	
1	0	0	1	1	518	512	1	497	38	7	
2	0	0	1	1	511	512	0	507	38	7	
3	0	0	1	1	509	512	1	519	38	7	
4	0	0	1	1	508	512	0	495	38	7	
5	0	0	1	1	508	512	1	489	39	7	
6	0	0	1	1	506	512	1	491	39	7	
7	0	0	1	1	510	512	0	508	39	7	
8	0	0	1	1	515	512	1	528	39	7	
9	0	0	1	1	505	512	0	527	38	7	
10	0	0	1	1	503	512	1	514	39	7	
11	0	0	1	1	516	512	0	516	39	7	
12	0	0	1	1	504	512	1	519	39	7	
13	0	0	1	1	512	512	0	530	39	7	
14	0	0	1	1	513	511	0	537	38	7	
15	0	0	1	1	509	512	1	494	38	7	
0	0	0	1	1	513	512	0	486	39	7	
1	0	0	1	1	514	512	1	487	39	7	
2	0	0	1	1	511	512	0	490	38	7	
3	0	0	1	1	504	512	1	498	38	7	
4	0	0	1	1	514	512	1	489	38	7	
5	0	0	1	1	504	512	0	492	38	7	
6	0	0	1	1	510	512	1	502	38	7	
7	0	0	1	1	512	512	0	520	38	7	
8	0	0	1	1	508	512	1	539	38	7	
9	0	0	1	1	508	512	0	528	38	7	
10	0	0	1	1	511	512	0	492	38	7	
11	0	0	1	1	512	512	1	484	38	7	
12	0	0	1	1	508	512	0	487	38	7	
13	0	0	1	1	517	512	1	499	38	7	
14	0	0	1	1	511	512	2	514	38	7	
15	0	0	1	1	512	512	1	479	38	7	
0	0	0	1	1	511	512	0	470	38	7	
1	0	0	1	1	508	512	1	473	38	7	
2	0	0	1	1	513	512	0	480	38	7	
3	0	0	1	1	508	512	1	493	38	7	
4	0	0	1	1	509	512	1	471	38	7	
5	0	0	1	1	519	512	0	452	38	7	
6	0	0	1	1	511	512	1	467	38	7	
7	0	0	1	1	510	512	0	483	38	7	
8	0	0	1	1	508	512	1	500	38	7	
9	0	0	1	1	504	512	1	504	38	7	
10	0	0	1	1	508	512	0	482	38	7	
11	0	0	1	1	512	512	1	487	38	7	
12	0	0	1	1	508	512	0	497	38	7	
13	0	0	1	1	512	512	1	516	38	7	
14	0	0	1	1	512	512	0	525	38	7	
15	0	0	1	1	511	512	1	511	38	7	
0	0	0	1	1	511	512	0	515	38	7	
1	0	0	1	1	511	512	1	524	38	7	
2	0	0	1	1	509	512	1	540	38	7	
3	0	0	1	1	510	512	0	552	38	7	
4	0	0	1	1	514	512	1	546	38	7	
5	0	0	1	1	510	512	0	525	38	7	
6	0	0	1	1	517	512	1	521	38	7	
7	0	0	1	1	516	512	1	525	38	7	
8	0	0	1	1	512	512	0	529	38	7	
9	0	0	1	1	509	512	1	529	38	7	
10	0	0	1	1	511	512	0	487	38	7	
11	0	0	1	1	508	512	1	479	38	7	
12	0	0	1	1	512	512	0	492	38	7	
13	0	0	1	1	504	512	1	508	38	7	
14	0	0	1	1	513	512	0	525	38	7	
15	0	0	1	1	508	512	0	513	38	7	
0	0	0	1	1	513	512	1	507	38	7	
1	0	0	1	1	514	512	0	517	38	7	
2	0	0	1	1	512	512	1	529	38	7	
3	0	0	1	1	511	512	0	546	38	7	
4	0	0	1	1	505	512	1	552	38	7	
5	0	0	1	1	510	512	0	537	38	7	
6	0	0	1	1	514	512	1	542	38	7	
7	0	0	1	1	510	512	1	547	38	7	
8	0	0	1	1	509	512	1	557	38	7	
9	0	0	1	1	513	512	1	570	38	7	
10	0	0	1	1	508	512	0	542	38	7	
11	0	0	1	1	509	512	1	533	38	7	
12	0	0	1	1	507	512	0	527	38	7	
13	0	0	1	1	514	512	1	526	38	7	
14	0	0	1	1	508	512	0	534	38	7	
15	0	0	1	1	506	512	0	519	38	7	
0	0	0	1	1	514	512	1	484	38	7	
1	0	0	1	1	507	512	0	479	38	7	
2	0	0	1	1	508	512	1	482	38	7	
3	0	0	1	1	508	512	0	491	38	7	
4	0	0	1	1	505	510	1	507	38	7	
5	0	0	1	1	515	512	0	482	38	7	
6	0	0	1	1	510	512	1	486	38	7	
7	0	0	1	1	516	512	0	498	38	7	
8	0	0	1	1	516	512	0	517	38	7	
9	0	0	1	1	504	512	1	537	38	7	
10	0	0	1	1	504	512	0	515	38	7	
11	0	0	1	1	511	512	1	501	38	7	
12	0	0	1	1	512	512	0	507	38	7	
13	0	0	1	1	505	512	1	521	38	7	
14	0	0	1	1	510	512	0	542	38	7	
15	0	0	1	1	504	512	1	543	38	7	
0	0	0	1	1	515	512	0	530	38	7	
1	0	0	1	1	515	512	0	534	38	7	
2	0	0	1	1	508	512	1	543	38	7	
3	0	0	1	1	515	512	0	561	38	7	
4	0	0	1	1	511	513	2	561	38	7	
5	0	0	1	1	512	512	0	518	38	7	
6	0	0	1	1	512	513	1	501	38	7	
7	0	0	1	1	508	512	0	496	38	7	
8	0	0	1	1	504	512	1	496	39	7	
9	0	0	1	1	516	512	0	505	38	7	
10	0	0	1	1	513	512	0	485	38	7	
11	0	0	1	1	504	512	1	459	38	7	
12	0	0	1	1	504	512	0	466	38	7	
13	0	0	1	1	513	512	1	483	38	7	
14	0	0	1	1	508	512	0	480	38	7	
15	0	0	1	1	511	512	1	487	38	7	
0	0	0	1	1	508	512	0	473	38	7	
1	0	0	1	1	508	512	1	480	38	7	
2	0	0	1	1	515	512	0	491	38	7	
3	0	0	1	1	511	512	0	506	38	7	
4	0	0	1	1	505	512	1	527	38	7	
5	0	0	1	1	514	512	1	515	38	7	
6	0	0	1	1	507	512	0	514	38	7	
7	0	0	1	1	502	512	0	525	38	7	
8	0	0	1	1	515	512	1	539	38	7	
9	0	0	1	1	513	512	0	554	38	7	
10	0	0	1	1	508	512	1	551	38	7	
11	0	0	1	1	514	512	0	535	38	7	
12	0	0	1	1	509	512	0	543	38	7	
13	0	0	1	1	506	512	1	526	38	7	
14	0	0	1	1	515	512	0	528	38	7	
15	0	0	1	1	512	512	1	536	38	7	
0	0	0	1	1	507	512	0	510	38	7	
1	0	0	1	1	509	512	1	505	38	7	
2	0	0	1	1	516	512	0	509	38	7	
3	0	0	1	1	512	512	1	523	38	7	
4	0	0	1	1	512	512	0	539	38	7	
5	0	0	1	1	511	512	1	527	38	7	
6	0	0	1	1	508	512	1	519	38	7	
7	0	0	1	1	507	512	0	521	38	7	
8	0	0	1	1	512	512	1	533	38	7	
9	0	0	1	1	512	512	0	547	38	7	
10	0	0	1	1	505	512	1	548	38	7	
11	0	0	1	1	510	512	0	515	38	7	
12	0	0	1	1	515	512	1	507	38	7	
13	0	0	1	1	508	512	1	513	38	7	
14	0	0	1	1	513	512	0	524	38	7	
15	0	0	1	1	504	512	1	556	38	7	
0	0	0	1	1	513	512	0	520	38	7	
1	0	0	1	1	507	512	0	516	38	7	
2	0	0	1	1	509	512	0	523	38	7	
3	0	0	1	1	510	512	1	539	38	7	
4	0	0	1	1	515	513	1	557	38	7	
5	0	0	1	1	515	512	0	542	38	7	
6	0	0	1	1	511	512	1	523	38	7	
7	0	0	1	1	513	512	0	524	38	7	
8	0	0	1	1	511	512	1	534	38	7	
9	0	0	1	1	504	512	0	566	38	7	
10	0	0	1	1	512	511	1	563	38	7	
11	0	0	1	1	511	512	1	520	38	7	
12	0	0	1	1	509	512	0	508	38	7	
13	0	0	1	1	510	512	1	502	38	7	
14	0	0	1	1	513	512	0	512	38	7	
15	0	0	1	1	509	512	1	527	38	7	
0	0	0	1	1	505	512	0	516	38	7	
1	0	0	1	1	512	512	1	508	38	7	
2	0	0	1	1	503	512	1	516	38	7	
3	0	0	1	1	503	512	0	531	38	7	
4	0	0	1	1	510	512	1	549	38	7	
5	0	0	1	1	505	512	0	547	37	7	
6	0	0	1	1	515	512	1	528	38	7	
7	0	0	1	1	514	512	0	521	38	7	
8	0	0	1	1	512	512	1	523	38	7	
9	0	0	1	1	513	512	1	529	38	7	
10	0	0	1	1	514	512	2	540	37	7	
11	0	0	1	1	507	512	1	501	38	7	
12	0	0	1	1	504	513	0	485	38	7	
13	0	0	1	1	502	512	1	488	38	7	
14	0	0	1	1	508	512	0	496	38	7	
15	0	0	1	1	512	512	1	515	38	7	
0	0	0	1	1	511	512	0	497	38	7	
1	0	0	1	1	510	512	1	478	38	7	
2	0	0	1	1	511	512	1	491	38	7	
3	0	0	1	1	512	512	1	505	38	7	
4	0	0	1	1	511	512	1	525	38	7	
5	0	0	1	1	509	512	0	534	38	7	
6	0	0	1	1	510	512	1	510	38	7	
7	0	0	1	1	511	512	0	513	38	7	
8	0	0	1	1	511	512	1	518	38	7	
9	0	0	1	1	513	512	0	528	38	7	
10	0	0	1	1	513	512	0	541	38	7	
11	0	0	1	1	512	512	1	527	38	7	
12	0	0	1	1	508	512	0	528	38	7	
13	0	0	1	1	515	512	1	531	38	7	
14	0	0	1	1	504	512	0	541	38	7	
15	0	0	1	1	511	512	1	552	38	7	
0	0	0	1	1	504	512	0	535	38	7	
1	0	0	1	1	511	512	1	501	38	7	
2	0	0	1	1	512	512	0	492	38	7	
3	0	0	1	1	510	512	1	503	38	7	
4	0	0	1	1	512	512	1	519	38	7	
5	0	0	1	1	512	511	0	534	38	7	
6	0	0	1	1	506	512	1	476	38	7	
7	0	0	1	1	512	512	0	455	38	7	
8	0	0	1	1	506	512	1	454	38	7	
9	0	0	1	1	509	512	0	464	38	7	
10	0	0	1	1	503	512	0	483	38	7	
11	0	0	1	1	519	512	1	479	38	7	
12	0	0	1	1	513	512	0	476	38	7	
13	0	0	1	1	508	512	1	489	38	7	
14	0	0	1	1	514	512	0	503	38	7	
15	0	0	1	1	510	512	1	519	38	7	
0	0	0	1	1	504	512	1	528	38	7	
1	0	0	1	1	510	512	1	507	38	7	
2	0	0	1	1	519	512	1	505	38	7	
3	0	0	1	1	513	512	0	519	38	7	
4	0	0	1	1	510	512	1	525	38	7	
5	0	0	1	1	518	512	0	540	38	7	
6	0	0	1	1	512	512	1	512	38	7	
7	0	0	1	1	509	512	0	499	38	7	
8	0	0	1	1	507	512	0	496	38	7	
9	0	0	1	1	512	512	1	496	38	7	
10	0	0	1	1	510	512	0	505	38	7	
11	0	0	1	1	500	512	1	491	38	7	
12	0	0	1	1	500	512	0	476	38	7	
13	0	0	1	1	512	512	1	486	38	7	
14	0	0	1	1	517	512	0	503	38	7	
15	0	0	1	1	505	512	1	510	38	7	
0	0	0	1	1	503	511	1	513	38	7	
1	0	0	1	1	513	513	0	473	38	7	
2	0	0	1	1	512	512	1	464	38	7	
3	0	0	1	1	511	512	0	454	38	7	
4	0	0	1	1	507	512	1	454	38	7	
5	0	0	1	1	514	512	1	470	38	7	
6	0	0	1	1	519	512	1	464	38	7	
7	0	0	1	1	513	512	1	461	38	7	
8	0	0	1	1	510	512	0	472	38	7	
9	0	0	1	1	515	512	1	493	38	7	
10	0	0	1	1	508	512	0	516	38	7	
11	0	0	1	1	510	512	0	516	38	7	
12	0	0	1	1	505	512	1	495	38	7	
13	0	0	1	1	510	512	0	492	38	7	
14	0	0	1	1	511	512	1	496	38	7	
15	0	0	1	1	508	512	0	507	38	7	
0	0	0	1	1	518	512	3	522	38	7	
1	0	0	1	1	511	512	1	496	38	7	
2	0	0	1	1	508	513	0	494	38	7	
3	0	0	1	1	513	512	1	502	38	7	
4	0	0	1	1	510	512	0	518	38	7	
5	0	0	1	1	513	512	1	533	38	7	
6	0	0	1	1	506	512	0	517	38	7	
7	0	0	1	1	511	512	0	501	38	7	
8	0	0	1	1	511	512	1	509	38	7	
9	0	0	1	1	509	512	0	526	38	7	
10	0	0	1	1	510	512	1	546	38	7	
11	0	0	1	1	513	512	0	555	38	7	
12	0	0	1	1	513	512	1	526	38	7	
13	0	0	1	1	505	512	1	514	38	7	
14	0	0	1	1	506	512	0	513	38	7	
15	0	0	1	1	516	512	1	522	38	7	
0	0	0	1	1	504	512	0	538	38	7	
1	0	0	1	1	518	512	1	521	38	7	
2	0	0	1	1	508	512	0	522	38	7	
3	0	0	1	1	508	512	1	524	38	7	
4	0	0	1	1	508	512	1	537	38	7	
5	0	0	1	1	509	512	0	554	38	7	
6	0	0	1	1	503	512	1	541	38	7	
7	0	0	1	1	516	512	0	518	38	7	
8	0	0	1	1	511	512	1	515	38	7	
9	0	0	1	1	500	512	0	517	38	7	
10	0	0	1	1	508	512	0	525	38	7	
11	0	0	1	1	515	511	1	536	38	7	
12	0	0	1	1	508	512	0	487	38	7	
13	0	0	1	1	515	512	1	472	38	7	
14	0	0	1	1	505	512	0	477	38	7	
15	0	0	1	1	507	512	1	490	38	7	
0	0	0	1	1	516	512	1	509	38	7	
1	0	0	1	1	504	512	0	478	38	7	
2	0	0	1	1	514	512	1	465	38	7	
3	0	0	1	1	513	512	0	473	38	7	
4	0	0	1	1	508	512	1	490	38	7	
5	0	0	1	1	517	512	1	511	38	7	
6	0	0	1	1	502	512	1	518	38	7	
7	0	0	1	1	512	512	1	502	38	7	
8	0	0	1	1	521	512	0	505	38	7	
9	0	0	1	1	506	512	1	519	38	7	
10	0	0	1	1	508	512	0	537	38	7	
11	0	0	1	1	513	512	1	550	38	7	
12	0	0	1	1	512	512	1	521	38	7	
13	0	0	1	1	510	513	1	511	38	7	
14	0	0	1	1	511	512	1	513	38	7	
15	0	0	1	1	511	512	0	521	38	7	
0	0	0	1	1	513	513	1	531	38	7	
1	0	0	1	1	508	512	0	520	38	7	
2	0	0	1	1	507	512	1	502	38	7	
3	0	0	1	1	508	512	1	504	38	7	
4	0	0	1	1	515	512	0	508	38	7	
5	0	0	1	1	514	512	1	516	38	7	
6	0	0	1	1	511	511	0	529	38	7	
7	0	0	1	1	511	512	1	507	38	7	
8	0	0	1	1	511	512	1	501	38	7	
9	0	0	1	1	508	512	0	499	38	7	
10	0	0	1	1	503	512	1	505	38	7	
11	0	0	1	1	507	512	0	517	38	7	
12	0	0	1	1	510	512	1	497	38	7	
13	0	0	1	1	510	512	0	487	38	7	
14	0	0	1	1	507	512	1	493	38	7	
15	0	0	1	1	512	512	1	502	38	7	
0	0	0	1	1	517	512	0	519	38	7	
1	0	0	1	1	508	512	1	516	38	7	
2	0	0	1	1	508	512	0	500	38	7	
3	0	0	1	1	508	512	0	506	38	7	
4	0	0	1	1	508	512	1	519	38	7	
5	0	0	1	1	510	512	0	535	38	7	
6	0	0	1	1	509	512	3	551	38	7	
7	0	0	1	1	517	512	0	522	38	7	
8	0	0	1	1	510	512	1	511	38	7	
9	0	0	1	1	509	512	1	513	38	7	
10	0	0	1	1	511	512	0	515	38	7	
11	0	0	1	1	511	512	1	526	38	7	
12	0	0	1	1	511	512	0	511	38	7	
13	0	0	1	1	509	512	1	499	38	7	
14	0	0	1	1	509	512	0	513	38	7	
15	0	0	1	1	513	512	1	531	38	7	
0	0	0	1	1	511	512	1	547	38	7	
1	0	0	1	1	510	512	0	556	38	7	
2	0	0	1	1	508	512	1	541	38	7	
3	0	0	1	1	509	512	0	539	38	7	
4	0	0	1	1	511	512	1	541	38	7	
5	0	0	1	1	510	512	1	549	38	7	
6	0	0	1	1	507	512	0	559	38	7	
7	0	0	1	1	512	512	1	536	38	7	
8	0	0	1	1	507	512	0	532	38	7	
9	0	0	1	1	515	512	1	536	38	7	
10	0	0	1	1	508	512	0	546	38	7	
11	0	0	1	1	507	512	0	559	38	7	
12	0	0	1	1	514	512	1	548	38	7	
13	0	0	1	1	509	512	0	522	38	7	
14	0	0	1	1	507	512	1	522	38	7	
15	0	0	1	1	510	512	0	534	38	7	
0	0	0	1	1	508	512	1	550	38	7	
1	0	0	1	1	512	511	1	559	38	7	
2	0	0	1	1	508	512	1	511	38	7	
3	0	0	1	1	507	512	1	493	38	7	
4	0	0	1	1	507	512	0	492	38	7	
5	0	0	1	1	515	512	1	501	38	7	
6	0	0	1	1	504	512	0	514	38	7	
7	0	0	1	1	508	512	1	487	38	7	
8	0	0	1	1	515	512	1	480	38	7	
9	0	0	1	1	503	512	0	489	38	7	
10	0	0	1	1	509	512	1	507	38	7	
11	0	0	1	1	512	512	0	521	38	7	
12	0	0	1	1	510	512	1	514	38	7	
13	0	0	1	1	511	512	0	491	38	7	
14	0	0	1	1	514	512	1	494	38	7	
15	0	0	1	1	515	512	0	505	38	7	
0	0	0	1	1	518	512	1	525	38	7	
1	0	0	1	1	516	512	1	540	38	7	
2	0	0	1	1	505	512	0	508	38	7	
3	0	0	1	1	497	513	1	497	38	7	
4	0	0	1	1	505	512	0	498	38	7	
5	0	0	1	1	510	512	1	511	38	7	
6	0	0	1	1	497	512	1	521	38	7	
7	0	0	1	1	514	512	1	505	38	7	
8	0	0	1	1	515	512	1	488	38	7	
9	0	0	1	1	513	512	0	498	38	7	
10	0	0	1	1	513	512	1	513	38	7	
11	0	0	1	1	508	512	1	520	38	7	
12	0	0	1	1	508	512	1	519	38	7	
13	0	0	1	1	520	512	1	481	38	7	
14	0	0	1	1	514	512	0	472	38	7	
15	0	0	1	1	515	512	1	483	38	7	
0	0	0	1	1	507	512	0	496	38	7	
1	0	0	1	1	505	512	0	516	38	7	
2	0	0	1	1	510	512	1	507	38	7	
3	0	0	1	1	508	512	0	506	38	7	
4	0	0	1	1	510	512	1	513	38	7	
5	0	0	1	1	510	512	0	522	38	7	
6	0	0	1	1	511	512	1	534	38	7	
7	0	0	1	1	504	512	1	527	38	7	
8	0	0	1	1	509	512	0	512	38	7	
9	0	0	1	1	509	512	1	517	38	7	
10	0	0	1	1	513	512	0	520	38	7	
11	0	0	1	1	516	512	1	532	38	7	
12	0	0	1	1	511	512	1	543	38	7	
13	0	0	1	1	512	512	1	503	38	7	
14	0	0	1	1	503	512	1	493	38	7	
15	0	0	1	1	503	512	0	495	38	7	
0	0	0	1	1	507	512	1	503	38	7	
1	0	0	1	1	513	512	0	523	38	7	
2	0	0	1	1	507	512	1	512	38	7	
3	0	0	1	1	510	512	0	503	38	7	
4	0	0	1	1	512	512	1	515	38	7	
5	0	0	1	1	505	512	1	532	38	7	
6	0	0	1	1	510	512	0	550	38	7	
7	0	0	1	1	515	512	1	563	38	7	
8	0	0	1	1	515	512	0	540	38	7	
9	0	0	1	1	513	512	0	543	38	7	
10	0	0	1	1	513	512	1	555	38	7	
11	0	0	1	1	508	512	0	562	38	7	
12	0	0	1	1	506	512	1	567	38	7	
13	0	0	1	1	508	512	0	531	38	7	
14	0	0	1	1	505	512	1	512	38	7	
15	0	0	1	1	510	512	1	503	38	7	
0	0	0	1	1	518	512	0	507	38	7	
1	0	0	1	1	513	512	1	528	38	7	
2	0	0	1	1	515	512	0	498	38	7	
3	0	0	1	1	511	512	1	479	38	7	
4	0	0	1	1	507	512	0	482	38	7	
5	0	0	1	1	510	512	1	493	38	7	
6	0	0	1	1	508	512	0	510	38	7	
7	0	0	1	1	505	511	0	522	38	7	
8	0	0	1	1	511	512	1	491	38	7	
9	0	0	1	1	512	512	0	487	38	7	
10	0	0	1	1	506	512	1	496	38	7	
11	0	0	1	1	512	512	0	507	38	7	
12	0	0	1	1	510	512	1	508	38	7	
13	0	0	1	1	512	512	0	480	38	7	
14	0	0	1	1	514	512	1	466	38	7	
15	0	0	1	1	506	512	1	471	38	7	
0	0	0	1	1	502	512	0	484	38	7	
1	0	0	1	1	508	512	1	496	38	7	
2	0	0	1	1	510	512	0	492	38	7	
3	0	0	1	1	513	512	1	470	38	7	
4	0	0	1	1	512	512	1	473	38	7	
5	0	0	1	1	506	512	0	492	38	7	
6	0	0	1	1	510	512	1	515	38	7	
7	0	0	1	1	516	512	2	532	38	7	
8	0	0	1	1	512	512	1	492	38	7	
9	0	0	1	1	509	513	1	480	38	7	
10	0	0	1	1	504	512	0	489	38	7	
11	0	0	1	1	512	512	1	492	38	7	
12	0	0	1	1	510	512	0	509	38	7	
13	0	0	1	1	504	512	1	495	38	7	
14	0	0	1	1	507	512	1	477	38	7	
15	0	0	1	1	513	512	1	487	38	7	
0	0	0	1	1	514	512	1	504	38	7	
1	0	0	1	1	509	512	0	519	38	7	
2	0	0	1	1	513	512	1	524	38	7	
3	0	0	1	1	513	512	0	501	38	7	
4	0	0	1	1	512	512	1	502	38	7	
5	0	0	1	1	511	512	1	510	38	7	
6	0	0	1	1	506	512	1	519	38	7	
7	0	0	1	1	511	512	1	532	38	7	
8	0	0	1	1	508	512	0	515	38	7	
9	0	0	1	1	512	512	0	510	38	7	
10	0	0	1	1	508	512	0	514	38	7	
11	0	0	1	1	513	512	0	525	38	7	
12	0	0	1	1	511	512	1	540	38	7	
13	0	0	1	1	506	512	0	525	38	7	
14	0	0	1	1	511	512	1	495	38	7	
15	0	0	1	1	512	512	0	489	38	7	
0	0	0	1	1	511	512	1	492	38	7	
1	0	0	1	1	508	512	0	503	38	7	
2	0	0	1	1	510	511	0	517	38	7	
3	0	0	1	1	515	512	1	500	38	7	
4	0	0	1	1	509	512	0	507	38	7	
5	0	0	1	1	512	512	1	517	38	7	
6	0	0	1	1	518	512	0	531	38	7	
7	0	0	1	1	512	512	1	545	38	7	
8	0	0	1	1	512	512	0	526	38	7	
9	0	0	1	1	508	512	1	500	38	7	
10	0	0	1	1	511	512	1	487	38	7	
11	0	0	1	1	501	512	0	491	38	7	
12	0	0	1	1	507	512	1	502	38	7	
13	0	0	1	1	505	512	0	498	38	7	
14	0	0	1	1	507	512	1	472	38	7	
15	0	0	1	1	517	512	0	470	38	7	
0	0	0	1	1	506	512	1	480	38	7	
1	0	0	1	1	515	512	1	498	38	7	
2	0	0	1	1	515	512	0	516	38	7	
3	0	0	1	1	511	512	1	489	38	7	
4	0	0	1	1	505	513	1	482	38	7	
5	0	0	1	1	504	512	1	492	38	7	
6	0	0	1	1	506	512	0	510	38	7	
7	0	0	1	1	511	512	1	529	38	7	
8	0	0	1	1	509	512	1	512	38	7	
9	0	0	1	1	515	512	1	490	38	7	
10	0	0	1	1	501	512	1	491	38	7	
11	0	0	1	1	508	512	0	503	38	7	
12	0	0	1	1	510	512	1	524	38	7	
13	0	0	1	1	509	511	0	540	38	7	
14	0	0	1	1	513	512	1	507	38	7	
15	0	0	1	1	512	512	1	496	38	7	
0	0	0	1	1	518	512	0	496	38	7	
1	0	0	1	1	506	512	1	501	38	7	
2	0	0	1	1	509	512	0	510	38	7	
3	0	0	1	1	513	512	1	483	38	7	
4	0	0	1	1	519	512	0	467	38	7	
5	0	0	1	1	509	512	0	473	38	7	
6	0	0	1	1	507	512	1	488	38	7	
7	0	0	1	1	511	512	0	502	38	7	
8	0	0	1	1	509	512	1	501	38	7	
9	0	0	1	1	510	512	0	483	38	7	
10	0	0	1	1	511	512	1	488	38	7	
11	0	0	1	1	512	512	1	507	38	7	
12	0	0	1	1	501	512	1	530	38	7	
13	0	0	1	1	513	512	2	555	38	7	
14	0	0	1	1	509	512	0	536	38	7	
15	0	0	1	1	508	512	1	538	38	7	
0	0	0	1	1	508	512	0	545	38	7	
1	0	0	1	1	513	512	1	552	38	7	
2	0	0	1	1	510	512	1	566	38	7	
3	0	0	1	1	505	512	0	545	38	7	
4	0	0	1	1	510	512	1	525	38	7	
5	0	0	1	1	508	512	0	531	38	7	
6	0	0	1	1	505	512	1	546	38	7	
7	0	0	1	1	509	512	0	561	38	7	
8	0	0	1	1	517	512	1	563	38	7	
9	0	0	1	1	513	512	0	531	38	7	
10	0	0	1	1	510	512	0	523	38	7	
11	0	0	1	1	506	512	1	516	38	7	
12	0	0	1	1	513	512	0	523	38	7	
13	0	0	1	1	515	512	1	536	38	7	
14	0	0	1	1	511	512	0	518	38	7	
15	0	0	1	1	512	512	0	513	38	7	
0	0	0	1	1	511	512	0	520	38	7	
1	0	0	1	1	513	512	1	523	38	7	
2	0	0	1	1	508	512	1	536	38	7	
3	0	0	1	1	507	512	1	519	38	7	
4	0	0	1	1	514	512	1	496	38	7	
5	0	0	1	1	515	512	0	500	38	7	
6	0	0	1	1	515	512	1	500	38	7	
7	0	0	1	1	511	512	0	514	38	7	
8	0	0	1	1	507	510	1	527	38	7	
9	0	0	1	1	510	512	1	496	38	7	
10	0	0	1	1	513	512	0	492	38	7	
11	0	0	1	1	505	512	1	493	38	7	
12	0	0	1	1	504	512	0	502	38	7	
13	0	0	1	1	508	512	1	513	38	7	
14	0	0	1	1	513	512	0	488	38	7	
15	0	0	1	1	514	512	1	477	38	7	
0	0	0	1	1	502	512	0	478	38	7	
1	0	0	1	1	512	512	0	485	38	7	
2	0	0	1	1	513	512	1	497	38	7	
3	0	0	1	1	505	512	1	489	38	7	
4	0	0	1	1	512	512	1	463	38	7	
5	0	0	1	1	507	512	0	462	38	7	
6	0	0	1	1	511	512	1	475	38	7	
7	0	0	1	1	508	512	0	497	38	7	
8	0	0	1	1	510	512	2	517	38	7	
9	0	0	1	1	514	512	1	492	38	7	
10	0	0	1	1	516	513	0	491	38	7	
11	0	0	1	1	512	512	1	505	38	7	
12	0	0	1	1	506	512	0	520	38	7	
13	0	0	1	1	512	512	1	536	38	7	
14	0	0	1	1	508	512	0	525	38	7	
15	0	0	1	1	514	512	1	516	38	7	
0	0	0	1	1	512	512	1	532	38	7	
1	0	0	1	1	512	512	0	548	38	7	
2	0	0	1	1	508	512	1	558	38	7	
3	0	0	1	1	503	512	0	556	38	7	
4	0	0	1	1	510	512	1	530	38	7	
5	0	0	1	1	513	512	0	529	38	7	
6	0	0	1	1	508	512	1	535	38	7	
7	0	0	1	1	501	512	1	540	38	7	
8	0	0	1	1	508	512	0	551	38	7	
9	0	0	1	1	511	512	1	524	38	7	
10	0	0	1	1	513	512	0	516	38	7	
11	0	0	1	1	510	512	1	518	38	7	
12	0	0	1	1	515	512	0	531	38	7	
13	0	0	1	1	513	512	1	536	38	7	
14	0	0	1	1	498	512	1	516	38	7	
15	0	0	1	1	517	512	1	480	38	7	
0	0	0	1	1	515	512	1	476	38	7	
1	0	0	1	1	506	512	0	487	38	7	
2	0	0	1	1	508	512	1	504	38	7	
3	0	0	1	1	510	512	0	526	38	7	
4	0	0	1	1	515	512	1	504	38	7	
5	0	0	1	1	519	512	1	501	38	7	
6	0	0	1	1	513	512	0	512	38	7	
7	0	0	1	1	512	512	1	519	38	7	
8	0	0	1	1	506	513	0	534	38	7	
9	0	0	1	1	516	512	1	529	38	7	
10	0	0	1	1	507	512	0	528	38	7	
11	0	0	1	1	501	512	0	540	38	7	
12	0	0	1	1	514	512	1	543	38	7	
13	0	0	1	1	512	512	0	546	38	7	
14	0	0	1	1	509	512	1	539	38	7	
15	0	0	1	1	512	512	0	506	38	7	
0	0	0	1	1	512	512	1	500	38	7	
1	0	0	1	1	510	512	1	505	38	7	
2	0	0	1	1	506	512	0	520	38	7	
3	0	0	1	1	509	512	1	537	38	7	
4	0	0	1	1	516	512	0	513	38	7	
5	0	0	1	1	509	512	1	510	38	7	
6	0	0	1	1	510	512	0	516	38	7	
7	0	0	1	1	510	512	1	528	38	7	
8	0	0	1	1	507	512	1	541	38	7	
9	0	0	1	1	506	512	0	525	38	7	
10	0	0	1	1	512	512	1	496	38	7	
11	0	0	1	1	512	512	0	489	38	7	
12	0	0	1	1	503	512	1	497	38	7	
13	0	0	1	1	508	512	0	507	38	7	
14	0	0	1	1	508	510	1	523	38	7	
15	0	0	1	1	516	512	0	499	38	7	
0	0	0	1	1	510	512	0	497	38	7	
1	0	0	1	1	510	512	1	509	38	7	
2	0	0	1	1	511	512	0	523	38	7	
3	0	0	1	1	509	512	1	536	38	7	
4	0	0	1	1	510	512	0	512	38	7	
5	0	0	1	1	509	512	0	496	38	7	
6	0	0	1	1	511	512	1	498	38	7	
7	0	0	1	1	507	512	0	505	38	7	
8	0	0	1	1	504	512	1	525	38	7	
9	0	0	1	1	501	512	0	514	38	7	
10	0	0	1	1	513	512	1	499	38	7	
11	0	0	1	1	516	512	0	510	38	7	
12	0	0	1	1	509	512	1	528	38	7	
13	0	0	1	1	517	512	1	549	38	7	
14	0	0	1	1	504	512	2	558	38	7	
15	0	0	1	1	511	512	1	516	38	7	
0	0	0	1	1	515	513	0	501	38	7	
1	0	0	1	1	507	512	1	505	38	7	
2	0	0	1	1	513	512	1	515	38	7	
3	0	0	1	1	506	512	0	531	38	7	
4	0	0	1	1	505	512	1	515	38	7	
5	0	0	1	1	514	512	0	497	38	7	
6	0	0	1	1	508	512	1	506	38	7	
7	0	0	1	1	511	512	0	522	38	7	
8	0	0	1	1	509	512	1	539	38	7	
9	0	0	1	1	513	512	0	535	38	7	
10	0	0	1	1	512	512	1	511	38	7	
11	0	0	1	1	521	512	0	507	38	7	
12	0	0	1	1	512	512	1	518	38	7	
13	0	0	1	1	511	512	1	529	38	7	
14	0	0	1	1	511	512	0	542	38	7	
15	0	0	1	1	511	512	1	527	38	7	
0	0	0	1	1	508	512	0	519	38	7	
1	0	0	1	1	512	512	1	518	38	7	
2	0	0	1	1	505	512	0	522	38	7	
3	0	0	1	1	505	512	1	532	38	7	
4	0	0	1	1	508	512	0	523	38	7	
5	0	0	1	1	509	512	1	499	38	7	
6	0	0	1	1	508	512	1	500	38	7	
7	0	0	1	1	507	512	0	506	38	7	
8	0	0	1	1	510	512	1	513	38	7	
9	0	0	1	1	505	511	0	526	38	7	
10	0	0	1	1	512	512	1	480	38	7	
11	0	0	1	1	514	512	0	470	38	7	
12	0	0	1	1	513	512	1	476	38	7	
13	0	0	1	1	516	512	1	488	38	7	
14	0	0	1	1	511	512	0	503	38	7	
15	0	0	1	1	505	512	1	480	38	7	
0	0	0	1	1	508	512	0	463	38	7	
1	0	0	1	1	510	512	1	465	38	7	
2	0	0	1	1	505	512	0	472	38	7	
3	0	0	1	1	502	512	1	485	38	7	
4	0	0	1	1	512	512	1	492	38	7	
5	0	0	1	1	519	512	1	481	38	7	
6	0	0	1	1	511	512	1	489	38	7	
7	0	0	1	1	505	512	0	503	38	7	
8	0	0	1	1	511	512	1	521	38	7	
9	0	0	1	1	506	512	0	540	38	7	
10	0	0	1	1	511	512	1	511	38	7	
11	0	0	1	1	511	513	1	496	38	7	
12	0	0	1	1	510	512	0	497	38	7	
13	0	0	1	1	511	512	1	504	38	7	
14	0	0	1	1	517	512	0	518	38	7	
15	0	0	1	1	512	512	1	513	38	7	
0	0	0	1	1	508	512	0	499	38	7	
1	0	0	1	1	512	512	1	508	38	7	
2	0	0	1	1	508	512	1	519	38	7	
3	0	0	1	1	515	512	0	531	38	7	
4	0	0	1	1	503	512	1	537	38	7	
5	0	0	1	1	508	512	0	510	38	7	
6	0	0	1	1	505	512	1	501	38	7	
7	0	0	1	1	505	512	0	504	38	7	
8	0	0	1	1	513	512	1	515	38	7	
9	0	0	1	1	505	512	1	532	38	7	
10	0	0	1	1	513	512	1	525	38	7	
11	0	0	1	1	513	512	1	516	38	7	
12	0	0	1	1	509	512	0	521	38	7	
13	0	0	1	1	511	512	1	530	38	7	
14	0	0	1	1	514	512	0	543	38	7	
15	0	0	1	1	504	512	0	535	38	7	
0	0	0	1	1	512	512	1	505	38	7	
1	0	0	1	1	519	512	0	500	38	7	
2	0	0	1	1	506	512	1	501	38	7	
3	0	0	1	1	514	512	0	508	38	7	
4	0	0	1	1	508	512	2	537	38	7	
5	0	0	1	1	515	512	0	491	38	7	
6	0	0	1	1	513	512	1	486	38	7	
7	0	0	1	1	513	512	1	491	38	7	
8	0	0	1	1	514	512	0	500	38	7	
9	0	0	1	1	506	512	1	522	38	7	
10	0	0	1	1	508	512	0	489	38	7	
11	0	0	1	1	513	512	1	462	38	7	
12	0	0	1	1	510	512	0	472	38	7	
13	0	0	1	1	504	512	0	494	38	7	
14	0	0	1	1	506	512	1	515	38	7	
15	0	0	1	1	509	512	0	521	38	7	
0	0	0	1	1	508	512	1	491	38	7	
1	0	0	1	1	512	512	0	486	38	7	
2	0	0	1	1	505	512	1	492	38	7	
3	0	0	1	1	514	512	0	508	38	7	
4	0	0	1	1	511	512	1	518	38	7	
5	0	0	1	1	511	512	1	500	38	7	
6	0	0	1	1	505	512	0	495	38	7	
7	0	0	1	1	515	512	1	493	38	7	
8	0	0	1	1	510	512	0	504	38	7	
9	0	0	1	1	509	512	1	521	38	7	
10	0	0	1	1	497	512	0	506	38	7	
11	0	0	1	1	507	512	1	476	38	7	
12	0	0	1	1	518	512	1	473	38	7	
13	0	0	1	1	511	512	0	484	38	7	
14	0	0	1	1	508	512	1	506	38	7	
15	0	0	1	1	507	511	0	531	38	7	
0	0	0	1	1	512	512	1	510	38	7	
1	0	0	1	1	509	512	0	512	38	7	
2	0	0	1	1	512	512	1	522	38	7	
3	0	0	1	1	507	512	0	532	38	7	
4	0	0	1	1	505	512	0	547	38	7	
5	0	0	1	1	517	512	1	523	38	7	
6	0	0	1	1	515	512	1	505	38	7	
7	0	0	1	1	502	512	1	510	38	7	
8	0	0	1	1	511	512	0	521	38	7	
9	0	0	1	1	508	512	1	529	38	7	
10	0	0	1	1	509	512	0	521	38	7	
11	0	0	1	1	516	512	1	484	38	7	
12	0	0	1	1	514	512	1	484	38	7	
13	0	0	1	1	512	512	0	487	38	7	
14	0	0	1	1	506	512	1	499	38	7	
15	0	0	1	1	508	512	2	514	38	7	
0	0	0	1	1	513	512	1	492	38	7	
1	0	0	1	1	507	512	0	495	38	7	
2	0	0	1	1	516	512	0	508	38	7	
3	0	0	1	1	508	512	1	527	38	7	
4	0	0	1	1	509	512	0	545	38	7	
5	0	0	1	1	512	512	1	519	38	7	
6	0	0	1	1	510	512	0	492	38	7	
7	0	0	1	1	507	512	1	499	38	7	
8	0	0	1	1	513	512	1	505	38	7	
9	0	0	1	1	514	512	0	519	38	7	
10	0	0	1	1	508	513	1	525	38	7	
11	0	0	1	1	511	512	0	507	38	7	
12	0	0	1	1	510	512	1	503	38	7	
13	0	0	1	1	507	512	0	513	38	7	
14	0	0	1	1	508	512	0	524	38	7	
15	0	0	1	1	508	512	1	542	38	7	
0	0	0	1	1	512	512	0	534	38	7	
1	0	0	1	1	512	512	0	531	38	7	
2	0	0	1	1	519	512	0	531	38	7	
3	0	0	1	1	507	512	1	538	38	7	
4	0	0	1	1	511	512	0	547	38	7	
5	0	0	1	1	509	512	1	530	38	7	
6	0	0	1	1	511	512	1	505	38	7	
7	0	0	1	1	515	512	0	505	38	7	
8	0	0	1	1	515	512	1	518	38	7	
9	0	0	1	1	507	512	0	533	38	7	
10	0	0	1	1	515	511	1	547	38	7	
11	0	0	1	1	514	512	0	518	38	7	
12	0	0	1	1	505	512	1	517	38	7	
13	0	0	1	1	511	512	1	527	38	7	
14	0	0	1	1	509	512	0	538	38	7	
15	0	0	1	1	505	512	1	553	38	7	
0	0	0	1	1	511	512	0	534	38	7	
1	0	0	1	1	510	512	1	523	38	7	
2	0	0	1	1	509	512	0	527	38	7	
3	0	0	1	1	510	512	1	536	38	7	
4	0	0	1	1	513	512	1	548	38	7	
5	0	0	1	1	511	512	1	545	38	7	
6	0	0	1	1	514	512	1	514	38	7	
7	0	0	1	1	515	512	0	506	38	7	
8	0	0	1	1	511	512	1	512	38	7	
9	0	0	1	1	507	512	0	522	38	7	
10	0	0	1	1	511	512	1	537	38	7	
11	0	0	1	1	506	512	0	504	38	7	
12	0	0	1	1	510	513	2	487	38	7	
13	0	0	1	1	510	512	1	479	38	7	
14	0	0	1	1	508	512	0	483	38	7	
15	0	0	1	1	519	512	1	497	38	7	
0	0	0	1	1	507	513	0	496	38	7	
1	0	0	1	1	511	512	1	502	38	7	
2	0	0	1	1	504	512	0	501	38	7	
3	0	0	1	1	511	512	1	514	38	7	
4	0	0	1	1	511	512	1	529	38	7	
5	0	0	1	1	511	512	0	543	38	7	
6	0	0	1	1	512	512	1	522	38	7	
7	0	0	1	1	514	512	0	520	38	7	
8	0	0	1	1	511	512	1	525	38	7	
9	0	0	1	1	521	512	1	527	38	7	
10	0	0	1	1	511	513	0	534	38	7	
11	0	0	1	1	507	512	1	510	38	7	
12	0	0	1	1	503	512	0	499	38	7	
13	0	0	1	1	507	512	1	505	38	7	
14	0	0	1	1	515	512	0	521	38	7	
15	0	0	1	1	510	512	1	540	38	7	
0	0	0	1	1	508	512	0	542	38	7	
1	0	0	1	1	503	512	1	535	38	7	
2	0	0	1	1	511	512	1	536	38	7	
3	0	0	1	1	509	512	0	540	38	7	
4	0	0	1	1	512	512	1	543	38	7	
5	0	0	1	1	512	512	1	549	38	7	
6	0	0	1	1	516	512	1	513	38	7	
7	0	0	1	1	512	512	0	502	38	7	
8	0	0	1	1	511	512	0	504	38	7	
9	0	0	1	1	508	512	1	509	38	7	
10	0	0	1	1	505	512	0	525	38	7	
11	0	0	1	1	511	512	1	505	38	7	
12	0	0	1	1	514	512	0	489	38	7	
13	0	0	1	1	509	512	1	504	38	7	
14	0	0	1	1	508	512	1	524	38	7	
15	0	0	1	1	508	512	0	543	38	7	
0	0	0	1	1	504	512	1	553	38	7	
1	0	0	1	1	507	512	0	537	38	7	
2	0	0	1	1	520	512	1	531	38	7	
3	0	0	1	1	515	512	1	540	38	7	
4	0	0	1	1	504	512	0	552	38	7	
5	0	0	1	1	511	512	1	568	38	7	
6	0	0	1	1	513	512	0	534	38	7	
7	0	0	1	1	511	512	0	512	38	7	
8	0	0	1	1	507	512	1	508	38	7	
9	0	0	1	1	509	512	1	514	38	7	
10	0	0	1	1	516	512	1	530	38	7	
11	0	0	1	1	507	512	0	519	38	7	
12	0	0	1	1	513	512	1	501	38	7	
13	0	0	1	1	509	512	0	500	38	7	
14	0	0	1	1	508	512	1	503	38	7	
15	0	0	1	1	511	512	1	512	38	7	
0	0	0	1	1	507	511	0	526	38	7	
1	0	0	1	1	509	512	1	509	38	7	
2	0	0	1	1	507	512	0	516	38	7	
3	0	0	1	1	515	512	1	527	38	7	
4	0	0	1	1	506	513	0	543	38	7	
5	0	0	1	1	512	512	1	555	38	7	
6	0	0	1	1	514	512	0	540	38	7	
7	0	0	1	1	513	512	1	532	38	7	
8	0	0	1	1	506	512	1	540	38	7	
9	0	0	1	1	511	512	0	552	38	7	
10	0	0	1	1	510	512	1	557	38	7	
11	0	0	1	1	505	512	0	534	38	7	
12	0	0	1	1	512	512	1	500	38	7	
13	0	0	1	1	513	512	0	493	38	7	
14	0	0	1	1	504	512	1	499	38	7	
15	0	0	1	1	513	512	1	512	38	7	
0	0	0	1	1	514	512	1	526	38	7	
1	0	0	1	1	515	512	1	496	38	7	
2	0	0	1	1	516	512	0	492	38	7	
3	0	0	1	1	509	512	1	492	38	7	
4	0	0	1	1	510	512	1	502	38	7	
5	0	0	1	1	513	512	1	515	38	7	
6	0	0	1	1	507	512	1	494	38	7	
7	0	0	1	1	512	512	0	476	38	7	
8	0	0	1	1	506	512	1	488	38	7	
9	0	0	1	1	512	512	0	510	38	7	
10	0	0	1	1	511	512	1	529	38	7	
11	0	0	1	1	513	512	0	539	38	7	
12	0	0	1	1	512	512	1	512	38	7	
13	0	0	1	1	517	512	1	505	38	7	
14	0	0	1	1	505	512	0	510	38	7	
15	0	0	1	1	504	512	1	523	38	7	
0	0	0	1	1	503	512	0	539	38	7	
1	0	0	1	1	512	512	1	527	38	7	
2	0	0	1	1	500	512	0	531	38	7	
3	0	0	1	1	510	512	0	536	38	7	
4	0	0	1	1	509	512	1	541	38	7	
5	0	0	1	1	516	512	0	551	38	7	
6	0	0	1	1	500	512	1	531	38	7	
7	0	0	1	1	511	512	0	501	38	7	
8	0	0	1	1	511	512	1	492	38	7	
9	0	0	1	1	515	512	1	499	38	7	
10	0	0	1	1	517	512	0	518	38	7	
11	0	0	1	1	513	511	1	530	38	7	
12	0	0	1	1	520	512	0	480	38	7	
13	0	0	1	1	507	512	1	466	38	7	
14	0	0	1	1	508	512	0	480	38	7	
15	0	0	1	1	510	512	1	473	38	7	
0	0	0	1	1	504	512	1	495	38	7	
1	0	0	1	1	509	512	0	484	38	7	
2	0	0	1	1	515	512	1	477	38	7	
3	0	0	1	1	508	512	0	487	38	7	
4	0	0	1	1	508	512	1	496	38	7	
5	0	0	1	1	512	512	0	513	38	7	
6	0	0	1	1	505	512	1	514	38	7	
7	0	0	1	1	511	512	1	486	38	7	
8	0	0	1	1	507	512	0	487	38	7	
9	0	0	1	1	504	512	1	491	38	7	
10	0	0	1	1	517	512	0	503	38	7	
11	0	0	1	1	515	512	1	515	38	7	
12	0	0	1	1	510	512	0	487	38	7	
13	0	0	1	1	514	513	1	470	38	7	
14	0	0	1	1	510	512	1	471	38	7	
15	0	0	1	1	511	512	0	483	38	7	
0	0	0	1	1	512	512	1	504	38	7	
1	0	0	1	1	508	512	0	497	38	7	
2	0	0	1	1	509	512	1	484	38	7	
3	0	0	1	1	507	512	1	494	38	7	
4	0	0	1	1	514	512	0	515	38	7	
5	0	0	1	1	507	512	1	531	38	7	
6	0	0	1	1	512	511	0	541	38	7	
7	0	0	1	1	509	512	1	512	38	7	
8	0	0	1	1	512	512	0	502	38	7	
9	0	0	1	1	518	512	1	506	38	7	
10	0	0	1	1	515	512	1	518	38	7	
11	0	0	1	1	511	512	0	539	38	7	
12	0	0	1	1	512	512	1	512	38	7	
13	0	0	1	1	502	512	0	504	38	7	
14	0	0	1	1	509	512	1	511	38	7	
15	0	0	1	1	505	512	0	523	38	7	
0	0	0	1	1	514	512	1	541	38	7	
1	0	0	1	1	502	512	1	532	38	7	
2	0	0	1	1	511	512	0	505	38	7	
3	0	0	1	1	514	512	1	495	38	7	
4	0	0	1	1	510	512	0	495	38	7	
5	0	0	1	1	507	512	1	508	38	7	
6	0	0	1	1	507	512	2	512	38	7	
7	0	0	1	1	514	512	0	480	38	7	
8	0	0	1	1	511	512	1	473	38	7	
9	0	0	1	1	517	512	0	477	38	7	
10	0	0	1	1	512	512	1	487	38	7	
11	0	0	1	1	511	512	0	504	38	7	
12	0	0	1	1	509	512	1	491	38	7	
13	0	0	1	1	510	512	1	477	38	7	
14	0	0	1	1	506	512	0	491	38	7	
15	0	0	1	1	509	512	1	513	38	7	
0	0	0	1	1	506	512	0	527	38	7	
1	0	0	1	1	509	512	1	527	38	7	
2	0	0	1	1	512	512	1	488	38	7	
3	0	0	1	1	513	512	0	475	38	7	
4	0	0	1	1	504	512	1	477	38	7	
5	0	0	1	1	508	512	0	486	38	7	
6	0	0	1	1	511	512	0	504	38	7	
7	0	0	1	1	516	512	1	483	38	7	
8	0	0	1	1	516	512	0	478	38	7	
9	0	0	1	1	509	512	1	479	38	7	
10	0	0	1	1	505	512	0	489	38	7	
11	0	0	1	1	508	512	1	503	38	7	
12	0	0	1	1	505	512	1	487	38	7	
13	0	0	1	1	513	512	1	463	38	7	
14	0	0	1	1	519	512	1	463	38	7	
15	0	0	1	1	513	512	0	473	38	7	
0	0	0	1	1	512	512	1	494	38	7	
1	0	0	1	1	511	511	0	513	38	7	
2	0	0	1	1	515	512	1	478	38	7	
3	0	0	1	1	510	512	1	475	38	7	
4	0	0	1	1	509	512	0	484	38	7	
5	0	0	1	1	510	513	1	491	38	7	
6	0	0	1	1	507	512	0	500	38	7	
7	0	0	1	1	521	512	0	477	38	7	
8	0	0	1	1	510	512	1	472	38	6	
9	0	0	1	1	506	512	0	486	38	7	
10	0	0	1	1	510	512	1	494	38	7	
11	0	0	1	1	508	512	0	508	38	7	
12	0	0	1	1	502	512	1	497	38	7	
13	0	0	1	1	516	512	1	468	38	7	
14	0	0	1	1	510	512	0	460	38	7	
15	0	0	1	1	509	512	1	470	38	7	
0	0	0	1	1	512	512	0	488	38	7	
1	0	0	1	1	505	512	3	509	38	7	
2	0	0	1	1	514	512	0	479	38	7	
3	0	0	1	1	512	513	0	469	38	7	
4	0	0	1	1	511	512	1	464	38	7	
5	0	0	1	1	508	512	0	478	38	7	
6	0	0	1	1	507	512	1	498	38	7	
7	0	0	1	1	508	512	0	487	38	7	
8	0	0	1	1	510	512	1	478	38	7	
9	0	0	1	1	516	512	1	491	38	7	
10	0	0	1	1	512	512	0	514	38	7	
11	0	0	1	1	510	512	1	537	38	7	
12	0	0	1	1	512	512	0	546	38	7	
13	0	0	1	1	510	512	1	520	38	7	
14	0	0	1	1	512	512	1	515	38	7	
15	0	0	1	1	500	512	0	525	38	7	
0	0	0	1	1	509	512	1	537	38	7	
1	0	0	1	1	509	512	0	564	38	7	
2	0	0	1	1	514	512	1	536	38	7	
3	0	0	1	1	511	512	0	533	38	7	
4	0	0	1	1	510	512	0	532	38	7	
5	0	0	1	1	514	512	1	541	38	7	
6	0	0	1	1	512	512	0	560	38	7	
7	0	0	1	1	507	512	1	550	38	7	
8	0	0	1	1	514	512	1	536	38	7	
9	0	0	1	1	507	512	0	533	38	7	
10	0	0	1	1	508	512	1	542	38	7	
11	0	0	1	1	508	512	1	553	38	7	
12	0	0	1	1	515	511	0	556	38	7	
13	0	0	1	1	513	512	1	513	38	7	
14	0	0	1	1	508	512	0	497	38	7	
15	0	0	1	1	507	512	1	498	38	7	
0	0	0	1	1	510	512	1	511	38	7	
1	0	0	1	1	510	512	0	528	38	7	
2	0	0	1	1	506	512	1	504	38	7	
3	0	0	1	1	516	512	1	487	38	7	
4	0	0	1	1	507	512	0	486	38	7	
5	0	0	1	1	505	512	1	487	38	7	
6	0	0	1	1	516	513	1	497	38	7	
7	0	0	1	1	511	512	0	496	38	7	
8	0	0	1	1	512	512	1	472	38	7	
9	0	0	1	1	519	512	0	475	38	7	
10	0	0	1	1	513	512	0	486	38	7	
11	0	0	1	1	514	513	1	504	38	7	
12	0	0	1	1	508	513	0	526	38	7	
13	0	0	1	1	507	512	1	492	38	7	
14	0	0	1	1	510	513	1	483	38	7	
15	0	0	1	1	509	512	0	486	38	7	
0	0	0	1	1	506	512	1	499	38	7	
1	0	0	1	1	508	513	0	522	38	7	
2	0	0	1	1	506	512	0	512	38	7	
3	0	0	1	1	501	512	1	494	38	7	
4	0	0	1	1	514	512	0	499	38	7	
5	0	0	1	1	508	512	1	521	38	7	
6	0	0	1	1	513	512	0	519	38	7	
7	0	0	1	1	510	511	1	530	38	7	
8	0	0	1	1	509	512	1	502	38	7	
9	0	0	1	1	511	512	0	497	38	7	
10	0	0	1	1	511	512	1	510	38	7	
11	0	0	1	1	509	512	0	513	38	7	
12	0	0	1	1	505	512	1	533	38	7	
13	0	0	1	1	509	512	1	514	38	7	
14	0	0	1	1	510	512	0	500	38	7	
15	0	0	1	1	511	512	1	502	38	7	
0	0	0	1	1	516	512	0	514	38	7	
1	0	0	1	1	510	512	1	532	38	7	
2	0	0	1	1	503	512	1	534	38	7	
3	0	0	1	1	509	512	0	534	38	7	
4	0	0	1	1	515	512	1	532	38	7	
5	0	0	1	1	509	512	0	547	38	7	
6	0	0	1	1	504	512	1	563	38	7	
7	0	0	1	1	519	512	2	576	38	7	
8	0	0	1	1	512	512	0	544	38	7	
9	0	0	1	1	498	512	1	530	38	7	
10	0	0	1	1	512	512	0	524	38	7	
11	0	0	1	1	510	512	1	523	38	7	
12	0	0	1	1	511	512	1	533	38	7	
13	0	0	1	1	501	512	0	511	38	7	
14	0	0	1	1	509	512	1	491	38	7	
15	0	0	1	1	515	512	1	499	38	7	
0	0	0	1	1	512	512	0	516	38	7	
1	0	0	1	1	514	512	1	531	38	7	
2	0	0	1	1	513	512	0	536	38	7	
3	0	0	1	1	510	512	1	515	38	7	
4	0	0	1	1	512	512	1	515	38	7	
5	0	0	1	1	511	512	0	514	38	7	
6	0	0	1	1	515	512	1	522	38	7	
7	0	0	1	1	509	512	0	533	38	7	
8	0	0	1	1	514	512	1	508	38	7	
9	0	0	1	1	515	512	1	497	38	7	
10	0	0	1	1	508	512	0	500	38	7	
11	0	0	1	1	508	512	1	515	38	7	
12	0	0	1	1	509	513	0	531	38	7	
13	0	0	1	1	503	512	1	511	38	7	
14	0	0	1	1	511	512	1	487	38	7	
15	0	0	1	1	507	512	0	491	38	7	
0	0	0	1	1	508	512	1	505	38	7	
1	0	0	1	1	509	512	1	522	38	7	
2	0	0	1	1	513	511	0	530	38	7	
3	0	0	1	1	513	512	1	486	38	7	
4	0	0	1	1	515	512	0	479	38	7	
5	0	0	1	1	510	512	1	487	38	7	
6	0	0	1	1	508	512	1	505	38	7	
7	0	0	1	1	511	512	0	518	38	7	
8	0	0	1	1	512	512	1	499	38	7	
9	0	0	1	1	508	512	0	484	38	7	
10	0	0	1	1	511	512	1	505	38	7	
11	0	0	1	1	508	512	1	504	38	7	
12	0	0	1	1	512	512	0	522	38	7	
13	0	0	1	1	509	512	1	521	38	7	
14	0	0	1	1	513	512	0	505	38	7	
15	0	0	1	1	508	512	1	516	38	7	
0	0	0	1	1	513	512	1	535	38	7	
1	0	0	1	1	507	512	0	553	38	7	
2	0	0	1	1	510	512	3	566	38	7	
3	0	0	1	1	509	512	0	533	38	7	
4	0	0	1	1	508	512	1	523	38	7	
5	0	0	1	1	510	512	1	529	38	7	
6	0	0	1	1	506	512	0	538	38	7	
7	0	0	1	1	503	512	1	550	38	7	
8	0	0	1	1	505	512	0	527	38	7	
9	0	0	1	1	513	512	1	504	38	7	
10	0	0	1	1	515	512	1	516	38	7	
11	0	0	1	1	510	512	0	536	38	7	
12	0	0	1	1	510	512	1	554	38	7	
13	0	0	1	1	510	512	0	556	38	7	
14	0	0	1	1	510	512	1	515	38	7	
15	0	0	1	1	516	512	0	497	38	7	
0	0	0	1	1	504	512	1	493	38	7	
1	0	0	1	1	507	512	1	502	38	7	
2	0	0	1	1	516	512	0	517	38	7	
3	0	0	1	1	515	512	1	507	38	7	
4	0	0	1	1	512	512	0	511	38	7	
5	0	0	1	1	503	512	1	512	38	7	
6	0	0	1	1	513	512	1	523	38	7	
7	0	0	1	1	513	512	0	535	38	7	
8	0	0	1	1	505	512	1	520	38	7	
9	0	0	1	1	511	512	0	496	38	7	
10	0	0	1	1	512	512	1	492	38	7	
11	0	0	1	1	513	512	1	491	38	7	
12	0	0	1	1	508	512	0	501	38	7	
13	0	0	1	1	516	511	1	508	38	7	
14	0	0	1	1	510	512	0	462	38	7	
15	0	0	1	1	508	512	1	452	38	7	
0	0	0	1	1	508	512	1	459	38	7	
1	0	0	1	1	518	512	0	477	38	7	
2	0	0	1	1	510	512	1	502	38	7	
3	0	0	1	1	508	512	0	499	38	7	
4	0	0	1	1	509	512	1	498	38	7	
5	0	0	1	1	512	512	1	507	38	7	
6	0	0	1	1	508	512	0	520	38	7	
7	0	0	1	1	518	512	1	529	38	7	
8	0	0	1	1	509	512	0	515	38	7	
9	0	0	1	1	504	512	0	479	38	7	
10	0	0	1	1	510	512	1	475	38	7	
11	0	0	1	1	507	512	0	486	38	7	
12	0	0	1	1	508	512	1	504	38	7	
13	0	0	1	1	508	512	2	523	38	7	
14	0	0	1	1	509	512	1	489	38	7	
15	0	0	1	1	511	513	1	481	38	7	
0	0	0	1	1	510	512	0	492	38	7	
1	0	0	1	1	505	512	1	515	38	7	
2	0	0	1	1	515	512	0	542	38	7	
3	0	0	1	1	507	512	1	524	38	7	
4	0	0	1	1	508	512	1	503	38	7	
5	0	0	1	1	513	512	0	511	38	7	
6	0	0	1	1	515	512	1	527	38	7	
7	0	0	1	1	511	512	0	542	38	7	
8	0	0	1	1	511	512	1	548	38	7	
9	0	0	1	1	511	512	1	528	38	7	
10	0	0	1	1	519	512	0	523	38	7	
11	0	0	1	1	507	512	1	531	38	7	
12	0	0	1	1	508	512	1	535	38	7	
13	0	0	1	1	511	512	0	548	38	7	
14	0	0	1	1	519	512	1	528	38	7	
15	0	0	1	1	509	512	0	520	38	7	
0	0	0	1	1	505	512	1	521	38	7	
1	0	0	1	1	511	512	1	528	38	7	
2	0	0	1	1	502	512	0	537	38	7	
3	0	0	1	1	510	512	1	522	38	7	
4	0	0	1	1	510	512	0	513	38	7	
5	0	0	1	1	516	512	1	498	38	7	
6	0	0	1	1	512	512	1	504	38	7	
7	0	0	1	1	511	512	0	517	38	7	
8	0	0	1	1	504	511	1	531	38	7	
9	0	0	1	1	511	512	0	492	38	7	
10	0	0	1	1	510	512	1	480	38	7	
11	0	0	1	1	510	512	1	486	38	7	
12	0	0	1	1	508	512	0	493	38	7	
13	0	0	1	1	510	513	1	519	38	7	
14	0	0	1	1	512	512	0	490	38	7	
15	0	0	1	1	506	512	1	489	38	7	
0	0	0	1	1	514	512	1	499	38	7	
1	0	0	1	1	513	512	0	513	38	7	
2	0	0	1	1	507	512	1	528	38	7	
3	0	0	1	1	516	512	0	527	38	7	
4	0	0	1	1	504	512	1	496	38	7	
5	0	0	1	1	519	512	1	494	38	7	
6	0	0	1	1	513	512	1	492	38	7	
7	0	0	1	1	514	512	1	499	38	7	
8	0	0	1	1	507	512	0	515	38	7	
9	0	0	1	1	511	512	1	492	38	7	
10	0	0	1	1	509	514	1	492	38	7	
11	0	0	1	1	512	512	0	491	38	7	
12	0	0	1	1	509	512	1	496	38	7	
13	0	0	1	1	504	512	0	508	38	7	
14	0	0	1	1	513	512	1	487	38	7	
15	0	0	1	1	511	512	0	463	38	7	
0	0	0	1	1	515	512	1	474	38	7	
1	0	0	1	1	506	512	1	496	38	7	
2	0	0	1	1	507	512	0	519	38	7	
3	0	0	1	1	507	512	1	538	38	7	
4	0	0	1	1	512	512	0	527	38	7	
5	0	0	1	1	511	512	1	519	38	7	
6	0	0	1	1	508	512	0	523	38	7	
7	0	0	1	1	513	512	0	530	38	7	
8	0	0	1	1	519	512	1	541	38	7	
9	0	0	1	1	515	512	0	527	38	7	
10	0	0	1	1	509	512	1	524	38	7	
11	0	0	1	1	510	512	0	528	38	7	
12	0	0	1	1	510	512	0	537	38	7	
13	0	0	1	1	506	512	1	550	38	7	
14	0	0	1	1	498	512	0	541	38	7	
15	0	0	1	1	512	512	1	510	38	7	
0	0	0	1	1	511	512	1	501	38	7	
1	0	0	1	1	505	512	0	507	38	7	
2	0	0	1	1	508	512	1	515	38	7	
3	0	0	1	1	505	512	1	526	38	7	
4	0	0	1	1	510	512	1	493	38	7	
5	0	0	1	1	511	512	1	490	38	7	
6	0	0	1	1	512	512	0	500	38	7	
7	0	0	1	1	511	512	1	518	38	7	
8	0	0	1	1	509	512	0	529	38	7	
9	0	0	1	1	515	512	0	511	38	7	
10	0	0	1	1	504	512	1	496	38	7	
11	0	0	1	1	504	512	0	507	38	7	
12	0	0	1	1	510	512	1	522	38	7	
13	0	0	1	1	508	512	0	542	38	7	
14	0	0	1	1	505	512	1	535	38	7	
15	0	0	1	1	510	512	1	494	38	7	
0	0	0	1	1	515	512	0	480	38	7	
1	0	0	1	1	513	512	1	487	38	7	
2	0	0	1	1	511	512	0	502	38	7	
3	0	0	1	1	505	512	1	512	38	7	
4	0	0	1	1	514	512	1	501	38	7	
5	0	0	1	1	511	512	0	512	38	7	
6	0	0	1	1	513	512	1	524	38	7	
7	0	0	1	1	511	512	0	537	38	7	
8	0	0	1	1	509	512	1	545	38	7	
9	0	0	1	1	503	513	1	528	38	7	
10	0	0	1	1	508	512	0	508	38	7	
11	0	0	1	1	513	512	1	511	38	7	
12	0	0	1	1	513	512	0	514	38	7	
13	0	0	1	1	513	512	1	517	38	7	
14	0	0	1	1	510	511	0	526	38	7	
15	0	0	1	1	516	512	0	509	38	7	
0	0	0	1	1	518	512	1	498	38	7	
1	0	0	1	1	511	512	0	502	38	7	
2	0	0	1	1	509	512	1	516	38	7	
3	0	0	1	1	511	512	1	534	38	7	
4	0	0	1	1	510	512	0	519	38	7	
5	0	0	1	1	510	512	1	514	38	7	
6	0	0	1	1	504	512	0	521	38	7	
7	0	0	1	1	508	512	0	532	38	7	
8	0	0	1	1	510	512	1	540	38	7	
9	0	0	1	1	509	512	0	534	38	7	
10	0	0	1	1	506	512	1	509	38	7	
11	0	0	1	1	513	512	1	512	38	7	
12	0	0	1	1	512	512	0	505	38	7	
13	0	0	1	1	507	512	1	516	38	7	
14	0	0	1	1	515	512	1	524	38	7	
15	0	0	1	1	511	512	1	486	38	7	
0	0	0	1	1	517	512	1	473	38	7	
1	0	0	1	1	509	512	0	476	38	7	
2	0	0	1	1	511	512	1	492	38	7	
3	0	0	1	1	515	512	0	514	38	7	
4	0	0	1	1	504	512	1	503	38	7	
5	0	0	1	1	505	512	0	492	38	7	
6	0	0	1	1	496	512	1	505	38	7	
7	0	0	1	1	505	512	1	524	38	7	
8	0	0	1	1	509	512	0	543	38	7	
9	0	0	1	1	514	512	1	548	38	7	
10	0	0	1	1	515	512	0	525	38	7	
11	0	0	1	1	517	512	1	519	38	7	
12	0	0	1	1	505	512	1	521	38	7	
13	0	0	1	1	510	512	0	528	38	7	
14	0	0	1	1	515	512	1	537	38	7	
15	0	0	1	1	511	512	0	507	38	7	
0	0	0	1	1	506	512	0	493	38	7	
1	0	0	1	1	511	512	1	487	38	7	
2	0	0	1	1	508	512	0	492	38	7	
3	0	0	1	1	508	512	1	508	38	7	
4	0	0	1	1	509	512	0	502	38	7	
5	0	0	1	1	513	512	1	483	38	7	
6	0	0	1	1	507	512	1	484	38	7	
7	0	0	1	1	513	512	0	495	38	7	
8	0	0	1	1	510	512	1	513	38	7	
9	0	0	1	1	512	511	0	525	38	7	
10	0	0	1	1	516	512	1	500	38	7	
11	0	0	1	1	513	512	1	502	38	7	
12	0	0	1	1	506	512	0	512	38	7	
13	0	0	1	1	513	512	1	527	38	7	
14	0	0	1	1	510	512	0	545	38	7	
15	0	0	1	1	512	512	1	534	38	7	
0	0	0	1	1	507	512	1	530	38	7	
1	0	0	1	1	511	512	0	537	38	7	
2	0	0	1	1	509	512	1	549	38	7	
3	0	0	1	1	513	512	0	556	38	7	
4	0	0	1	1	508	512	1	544	38	7	
5	0	0	1	1	512	512	1	519	38	7	
6	0	0	1	1	517	512	0	519	38	7	
7	0	0	1	1	513	512	1	525	38	7	
8	0	0	1	1	508	512	0	538	38	7	
9	0	0	1	1	504	512	3	540	38	7	
10	0	0	1	1	510	512	1	511	38	7	
11	0	0	1	1	511	512	0	507	38	7	
12	0	0	1	1	506	512	1	516	38	7	
13	0	0	1	1	508	512	1	531	38	7	
14	0	0	1	1	511	512	1	546	38	7	
15	0	0	1	1	508	512	1	519	38	7	
0	0	0	1	1	513	512	0	495	38	7	
1	0	0	1	1	516	512	1	500	38	7	
2	0	0	1	1	507	512	1	515	38	7	
3	0	0	1	1	514	512	0	528	38	7	
4	0	0	1	1	513	512	1	529	38	7	
5	0	0	1	1	510	512	0	483	38	7	
6	0	0	1	1	509	512	1	469	38	7	
7	0	0	1	1	514	512	1	472	38	7	
8	0	0	1	1	507	512	0	483	38	7	
9	0	0	1	1	514	512	1	497	38	7	
10	0	0	1	1	504	512	0	478	38	7	
11	0	0	1	1	509	512	0	479	38	7	
12	0	0	1	1	511	512	1	488	38	7	
13	0	0	1	1	511	512	0	499	38	7	
14	0	0	1	1	512	512	1	519	38	7	
15	0	0	1	1	508	512	1	515	38	7	
0	0	0	1	1	512	512	1	501	38	7	
1	0	0	1	1	507	512	1	507	38	7	
2	0	0	1	1	512	512	0	516	38	7	
3	0	0	1	1	512	512	1	525	38	7	
4	0	0	1	1	514	510	0	528	38	7	
5	0	0	1	1	512	512	1	485	38	7	
6	0	0	1	1	504	512	1	475	38	7	
7	0	0	1	1	506	512	0	481	38	7	
8	0	0	1	1	505	512	1	508	38	7	
9	0	0	1	1	513	512	0	519	38	7	
10	0	0	1	1	509	512	1	502	38	7	
11	0	0	1	1	511	512	1	490	38	7	
12	0	0	1	1	513	512	0	506	38	7	
13	0	0	1	1	513	512	1	515	38	7	
14	0	0	1	1	511	512	1	537	38	7	
15	0	0	1	1	505	512	1	537	38	7	
0	0	0	1	1	510	512	1	518	38	7	
1	0	0	1	1	508	512	0	515	38	7	
2	0	0	1	1	515	512	0	520	38	7	
3	0	0	1	1	511	512	1	532	38	7	
4	0	0	1	1	507	513	2	543	38	7	
5	0	0	1	1	511	512	1	496	38	7	
6	0	0	1	1	511	513	0	480	38	7	
7	0	0	1	1	507	512	0	475	38	7	
8	0	0	1	1	509	512	1	481	38	7	
9	0	0	1	1	509	512	0	497	38	7	
10	0	0	1	1	509	512	1	481	38	7	
11	0	0	1	1	509	512	1	457	38	7	
12	0	0	1	1	515	512	0	465	38	7	
13	0	0	1	1	520	512	1	477	38	7	
14	0	0	1	1	515	512	0	497	38	7	
15	0	0	1	1	503	512	1	511	38	7	
0	0	0	1	1	509	512	1	480	38	7	
1	0	0	1	1	509	512	0	475	38	7	
2	0	0	1	1	518	512	1	486	38	7	
3	0	0	1	1	509	512	0	504	38	7	
4	0	0	1	1	502	512	1	525	38	7	
5	0	0	1	1	505	512	1	508	38	7	
6	0	0	1	1	503	512	0	506	38	7	
7	0	0	1	1	505	512	1	509	38	7	
8	0	0	1	1	514	512	0	521	38	7	
9	0	0	1	1	514	512	0	542	38	7	
10	0	0	1	1	508	512	1	542	38	7	
11	0	0	1	1	506	512	0	535	38	7	
12	0	0	1	1	515	512	1	539	38	7	
13	0	0	1	1	509	512	0	542	38	7	
14	0	0	1	1	508	512	1	550	38	7	
15	0	0	1	1	512	510	1	553	38	7	
0	0	0	1	1	515	512	0	506	38	7	
1	0	0	1	1	510	512	1	487	38	7	
2	0	0	1	1	506	512	0	491	38	7	
3	0	0	1	1	508	512	1	504	38	7	
4	0	0	1	1	508	512	1	526	38	7	
5	0	0	1	1	513	512	0	507	38	7	
6	0	0	1	1	506	512	1	494	38	7	
7	0	0	1	1	513	512	1	499	38	7	
8	0	0	1	1	508	512	0	512	38	7	
9	0	0	1	1	507	512	1	525	38	7	
10	0	0	1	1	510	512	1	521	38	7	
11	0	0	1	1	516	512	0	498	38	7	
12	0	0	1	1	514	512	1	500	38	7	
13	0	0	1	1	515	512	1	503	38	7	
14	0	0	1	1	515	512	0	516	38	7	
15	0	0	1	1	509	512	3	532	38	7	
0	0	0	1	1	506	512	0	509	38	7	
1	0	0	1	1	503	513	1	502	38	7	
2	0	0	1	1	508	512	1	505	38	7	
3	0	0	1	1	508	512	0	518	38	7	
4	0	0	1	1	511	513	1	535	38	7	
5	0	0	1	1	507	512	0	515	38	7	
6	0	0	1	1	508	512	1	494	38	7	
7	0	0	1	1	506	512	1	503	38	7	
8	0	0	1	1	507	512	0	520	38	7	
9	0	0	1	1	515	512	1	534	38	7	
10	0	0	1	1	516	512	0	534	38	7	
11	0	0	1	1	510	512	1	494	38	7	
12	0	0	1	1	515	512	1	491	38	7	
13	0	0	1	1	512	512	0	490	38	7	
14	0	0	1	1	507	512	1	499	38	7	
15	0	0	1	1	512	512	1	509	38	7	
0	0	0	1	1	513	512	1	495	38	7	
1	0	0	1	1	510	512	0	495	38	7	
2	0	0	1	1	502	512	0	499	38	7	
3	0	0	1	1	511	512	1	512	38	7	
4	0	0	1	1	515	512	1	530	38	7	
5	0	0	1	1	507	512	1	525	38	7	
6	0	0	1	1	511	512	1	515	38	7	
7	0	0	1	1	511	512	0	521	38	7	
8	0	0	1	1	505	512	0	524	38	7	
9	0	0	1	1	506	512	1	532	38	7	
10	0	0	1	1	518	510	0	544	38	7	
11	0	0	1	1	515	512	1	522	38	7	
12	0	0	1	1	513	512	0	497	38	7	
13	0	0	1	1	504	512	1	501	38	7	
14	0	0	1	1	510	512	1	513	38	7	
15	0	0	1	1	509	512	0	530	38	7	
0	0	0	1	1	511	512	1	505	38	7	
1	0	0	1	1	506	512	1	494	38	7	
2	0	0	1	1	518	512	0	501	38	7	
3	0	0	1	1	511	512	1	515	38	7	
4	0	0	1	1	513	512	0	535	38	7	
5	0	0	1	1	507	512	1	530	38	7	
6	0	0	1	1	504	512	1	512	38	7	
7	0	0	1	1	512	512	0	517	38	7	
8	0	0	1	1	509	512	1	532	38	7	
9	0	0	1	1	504	512	0	545	38	7	
10	0	0	1	1	509	512	3	558	38	7	
11	0	0	1	1	512	512	1	522	38	7	
12	0	0	1	1	511	512	0	513	38	7	
13	0	0	1	1	513	512	1	517	38	7	
14	0	0	1	1	508	512	0	530	38	7	
15	0	0	1	1	511	512	1	550	38	7	
0	0	0	1	1	507	512	1	535	38	7	
1	0	0	1	1	507	512	0	512	38	7	
2	0	0	1	1	510	512	1	519	38	7	
3	0	0	1	1	513	512	0	537	38	7	
4	0	0	1	1	510	512	0	556	38	7	
5	0	0	1	1	509	512	1	558	38	7	
6	0	0	1	1	511	512	0	518	38	7	
7	0	0	1	1	521	512	1	507	38	7	
8	0	0	1	1	513	512	0	511	38	7	
9	0	0	1	1	513	512	0	524	38	7	
10	0	0	1	1	512	512	1	541	38	7	
11	0	0	1	1	507	512	0	532	38	7	
12	0	0	1	1	504	512	0	530	38	7	
13	0	0	1	1	515	512	0	530	38	7	
14	0	0	1	1	510	512	1	540	38	7	
15	0	0	1	1	514	512	1	552	38	7	
0	0	0	1	1	510	512	0	541	38	7	
1	0	0	1	1	513	512	1	523	38	7	
2	0	0	1	1	508	512	0	521	38	7	
3	0	0	1	1	511	512	0	526	38	7	
4	0	0	1	1	508	512	1	537	38	7	
5	0	0	1	1	503	511	0	546	38	7	
6	0	0	1	1	516	512	1	517	38	7	
7	0	0	1	1	511	512	1	512	38	7	
8	0	0	1	1	508	512	0	520	38	7	
9	0	0	1	1	507	513	1	527	38	7	
10	0	0	1	1	507	512	0	533	38	7	
11	0	0	1	1	508	512	1	498	38	7	
12	0	0	1	1	502	512	1	476	38	7	
13	0	0	1	1	508	512	0	473	38	7	
14	0	0	1	1	512	512	1	475	38	7	
15	0	0	1	1	507	512	0	486	38	7	
0	0	0	1	1	514	512	1	487	38	7	
1	0	0	1	1	514	512	1	456	38	7	
2	0	0	1	1	512	512	0	453	39	7	
3	0	0	1	1	509	512	1	452	39	7	
4	0	0	1	1	509	512	0	464	39	7	
5	0	0	1	1	512	512	1	478	38	7	
6	0	0	1	1	511	512	1	449	38	7	
7	0	0	1	1	514	514	1	446	39	7	
8	0	0	1	1	514	512	1	456	39	7	
9	0	0	1	1	511	513	0	474	39	7	
10	0	0	1	1	506	512	1	501	38	7	
11	0	0	1	1	507	512	1	504	38	7	
12	0	0	1	1	516	512	0	505	39	7	
13	0	0	1	1	508	512	1	526	39	7	
14	0	0	1	1	508	512	0	543	39	7	
15	0	0	1	1	511	512	0	559	39	7	
0	0	0	1	1	511	512	1	567	39	7	
1	0	0	1	1	510	512	0	537	39	7	
2	0	0	1	1	518	512	1	528	39	7	
3	0	0	1	1	507	512	0	532	39	7	
4	0	0	1	1	507	512	1	543	39	7	
5	0	0	1	1	506	512	1	556	39	7	
6	0	0	1	1	508	512	0	542	39	7	
7	0	0	1	1	514	512	1	535	39	7	
8	0	0	1	1	511	512	0	535	39	7	
9	0	0	1	1	514	512	0	545	39	7	
10	0	0	1	1	506	512	1	562	39	7	
11	0	0	1	1	506	512	0	559	38	7	
12	0	0	1	1	510	512	1	525	39	7	
13	0	0	1	1	512	512	1	515	39	7	
14	0	0	1	1	508	512	0	519	38	7	
15	0	0	1	1	511	512	1	536	38	7	
0	0	0	1	1	507	512	1	553	38	7	
1	0	0	1	1	516	512	1	521	38	7	
2	0	0	1	1	507	512	1	514	38	7	
3	0	0	1	1	514	512	0	521	38	7	
4	0	0	1	1	509	512	1	534	38	7	
5	0	0	1	1	511	512	1	550	38	7	
6	0	0	1	1	509	512	0	521	38	7	
7	0	0	1	1	513	512	1	497	38	7	
8	0	0	1	1	510	512	0	505	38	7	
9	0	0	1	1	511	512	1	522	38	7	
10	0	0	1	1	515	512	1	540	38	7	
11	0	0	1	1	511	512	0	546	38	7	
12	0	0	1	1	506	512	1	520	38	7	
13	0	0	1	1	515	512	1	512	38	7	
14	0	0	1	1	512	512	0	522	38	7	
15	0	0	1	1	505	512	1	540	38	7	
0	0	0	1	1	511	512	1	557	38	7	
1	0	0	1	1	512	512	1	524	38	7	
2	0	0	1	1	506	512	1	507	38	7	
3	0	0	1	1	508	512	0	505	38	7	
4	0	0	1	1	510	512	0	521	38	7	
5	0	0	1	1	511	512	1	537	38	7	
6	0	0	1	1	508	513	0	520	38	7	
7	0	0	1	1	519	512	1	492	38	7	
8	0	0	1	1	510	512	0	489	38	7	
9	0	0	1	1	508	512	0	500	38	7	
10	0	0	1	1	512	512	1	510	38	7	
11	0	0	1	1	504	511	0	518	38	7	
12	0	0	1	1	509	512	1	488	38	7	
13	0	0	1	1	505	512	0	488	38	7	
14	0	0	1	1	511	512	1	494	38	7	
15	0	0	1	1	516	512	1	503	38	7	
0	0	0	1	1	508	513	0	519	38	7	
1	0	0	1	1	508	512	1	505	38	7	
2	0	0	1	1	511	512	0	498	39	7	
3	0	0	1	1	513	512	0	504	38	7	
4	0	0	1	1	510	512	1	514	38	7	
5	0	0	1	1	512	512	0	522	38	7	
6	0	0	1	1	507	512	0	506	38	7	
7	0	0	1	1	507	512	1	472	38	7	
8	0	0	1	1	511	512	0	467	38	7	
9	0	0	1	1	514	512	1	461	38	7	
10	0	0	1	1	507	512	0	473	39	7	
11	0	0	1	1	512	512	1	492	39	7	
12	0	0	1	1	508	512	1	471	39	7	
13	0	0	1	1	508	512	0	468	39	7	
14	0	0	1	1	512	512	1	478	39	7	
15	0	0	1	1	511	512	1	493	39	7	
0	0	0	1	1	510	512	0	512	39	7	
1	0	0	1	1	508	512	1	489	39	7	
2	0	0	1	1	514	512	0	464	39	7	
3	0	0	1	1	504	512	0	475	39	7	
4	0	0	1	1	505	512	1	492	39	7	
5	0	0	1	1	516	512	0	515	39	7	
6	0	0	1	1	508	512	1	523	39	7	
7	0	0	1	1	513	512	1	498	39	7	
8	0	0	1	1	512	512	0	496	39	7	
9	0	0	1	1	517	512	1	508	39	7	
10	0	0	1	1	515	512	0	510	39	7	
11	0	0	1	1	507	512	0	519	39	7	
12	0	0	1	1	512	512	1	481	39	7	
13	0	0	1	1	512	512	0	460	39	7	
14	0	0	1	1	507	512	1	459	39	7	
15	0	0	1	1	508	512	0	475	39	7	
0	0	0	1	1	512	512	1	494	39	7	
1	0	0	1	1	500	512	1	499	39	7	
2	0	0	1	1	512	512	0	496	39	7	
3	0	0	1	1	511	512	1	503	39	7	
4	0	0	1	1	511	512	1	517	39	7	
5	0	0	1	1	518	512	0	533	39	7	
6	0	0	1	1	503	511	1	549	39	7	
7	0	0	1	1	513	512	0	509	39	7	
8	0	0	1	1	506	512	1	500	39	7	
9	0	0	1	1	511	512	1	505	39	7	
10	0	0	1	1	509	512	0	515	39	7	
11	0	0	1	1	507	512	1	530	39	7	
12	0	0	1	1	509	512	0	504	39	7	
13	0	0	1	1	513	512	1	490	39	7	
14	0	0	1	1	507	512	1	495	39	7	
15	0	0	1	1	507	512	0	510	39	7	
0	0	0	1	1	510	512	1	522	39	7	
1	0	0	1	1	506	512	1	517	39	7	
2	0	0	1	1	509	512	0	501	39	7	
3	0	0	1	1	513	512	1	504	39	7	
4	0	0	1	1	515	512	1	508	40	7	
5	0	0	1	1	510	513	0	522	40	7	
6	0	0	1	1	518	513	2	536	40	7	
7	0	0	1	1	509	512	0	501	40	7	
8	0	0	1	1	510	512	1	489	40	7	
9	0	0	1	1	506	512	1	491	40	7	
10	0	0	1	1	511	512	0	504	40	7	
11	0	0	1	1	511	512	1	519	40	7	
12	0	0	1	1	513	512	1	507	40	7	
13	0	0	1	1	512	512	0	493	40	7	
14	0	0	1	1	509	512	1	499	40	7	
15	0	0	1	1	506	512	1	514	40	7	
0	0	0	1	1	510	512	0	532	40	7	
1	0	0	1	1	512	512	1	537	40	7	
2	0	0	1	1	509	512	1	511	40	7	
3	0	0	1	1	509	512	0	509	41	7	
4	0	0	1	1	507	512	1	520	41	7	
5	0	0	1	1	512	512	1	529	41	7	
6	0	0	1	1	511	512	0	544	41	7	
7	0	0	1	1	510	512	1	499	41	7	
8	0	0	1	1	507	512	0	481	41	7	
9	0	0	1	1	515	512	0	469	41	7	
10	0	0	1	1	507	512	1	479	41	7	
11	0	0	1	1	508	512	0	496	41	7	
12	0	0	1	1	507	512	1	497	41	7	
13	0	0	1	1	507	512	1	492	41	7	
14	0	0	1	1	511	512	0	498	41	7	
15	0	0	1	1	509	512	0	505	41	7	
0	0	0	1	1	509	512	1	522	41	7	
1	0	0	1	1	510	510	0	543	41	7	
2	0	0	1	1	515	512	0	520	41	7	
3	0	0	1	1	513	512	1	526	41	7	
4	0	0	1	1	516	512	0	532	41	7	
5	0	0	1	1	511	512	0	545	41	7	
6	0	0	1	1	512	512	1	560	41	7	
7	0	0	1	1	516	512	0	554	41	7	
8	0	0	1	1	512	512	0	549	41	7	
9	0	0	1	1	509	512	1	553	41	7	
10	0	0	1	1	504	512	1	559	41	7	
11	0	0	1	1	507	512	0	571	41	7	
12	0	0	1	1	502	512	1	553	41	7	
13	0	0	1	1	512	512	0	516	41	7	
14	0	0	1	1	514	512	0	505	41	7	
15	0	0	1	1	509	513	1	511	41	7	
0	0	0	1	1	507	512	0	524	41	7	
1	0	0	1	1	515	513	2	532	41	7	
2	0	0	1	1	502	512	1	499	41	7	
3	0	0	1	1	509	512	0	488	41	7	
4	0	0	1	1	509	512	1	492	41	7	
5	0	0	1	1	509	512	1	506	41	7	
6	0	0	1	1	505	512	1	526	41	7	
7	0	0	1	1	512	512	1	513	41	7	
8	0	0	1	1	509	512	0	503	41	7	
9	0	0	1	1	512	512	1	513	41	7	
10	0	0	1	1	506	512	1	523	41	7	
11	0	0	1	1	503	512	1	535	41	7	
12	0	0	1	1	514	512	1	538	41	7	
13	0	0	1	1	520	512	0	500	41	7	
14	0	0	1	1	516	512	0	490	41	7	
15	0	0	1	1	507	512	1	491	41	7	
0	0	0	1	1	510	512	0	504	41	7	
1	0	0	1	1	511	512	1	520	41	7	
2	0	0	1	1	517	512	1	487	41	7	
3	0	0	1	1	511	512	0	478	41	7	
4	0	0	1	1	502	512	1	489	41	7	
5	0	0	1	1	508	512	1	502	41	7	
6	0	0	1	1	511	512	0	518	41	7	
7	0	0	1	1	503	513	1	508	41	7	
8	0	0	1	1	521	512	0	481	41	7	
9	0	0	1	1	511	512	1	479	41	7	
10	0	0	1	1	505	512	1	489	41	7	
11	0	0	1	1	504	512	0	509	42	7	
12	0	0	1	1	512	511	1	515	42	7	
13	0	0	1	1	511	512	0	480	42	7	
14	0	0	1	1	516	512	1	471	42	7	
15	0	0	1	1	511	512	1	491	42	7	
0	0	0	1	1	508	512	0	498	42	7	
1	0	0	1	1	507	512	1	523	43	7	
2	0	0	1	1	514	512	0	513	43	7	
3	0	0	1	1	503	512	1	508	43	7	
4	0	0	1	1	503	512	1	518	43	7	
5	0	0	1	1	513	512	0	538	43	7	
6	0	0	1	1	511	512	1	556	43	7	
7	0	0	1	1	508	512	1	552	43	7	
8	0	0	1	1	505	512	0	533	43	7	
9	0	0	1	1	519	512	1	531	43	7	
10	0	0	1	1	515	512	0	544	43	7	
11	0	0	1	1	510	512	1	561	43	7	
12	0	0	1	1	510	512	2	580	43	7	
13	0	0	1	1	510	512	0	554	44	7	
14	0	0	1	1	515	512	1	548	44	7	
15	0	0	1	1	512	512	1	544	44	7	
0	0	0	1	1	513	512	0	544	44	7	
1	0	0	1	1	510	512	1	549	44	7	
2	0	0	1	1	502	512	0	529	44	7	
3	0	0	1	1	510	512	1	515	44	7	
4	0	0	1	1	504	512	1	527	44	7	
5	0	0	1	1	514	512	0	547	45	7	
6	0	0	1	1	509	512	1	562	45	7	
7	0	0	1	1	500	512	1	572	44	7	
8	0	0	1	1	513	512	0	556	44	7	
9	0	0	1	1	510	512	1	551	45	7	
10	0	0	1	1	515	512	1	552	44	7	
11	0	0	1	1	507	512	0	559	44	7	
12	0	0	1	1	509	512	1	562	44	7	
13	0	0	1	1	512	512	0	516	44	7	
14	0	0	1	1	510	513	1	497	44	7	
15	0	0	1	1	505	512	1	488	44	7	
0	0	0	1	1	509	512	0	492	44	7	
1	0	0	1	1	508	512	0	503	44	7	
2	0	0	1	1	509	513	1	485	43	7	
3	0	0	1	1	513	512	0	458	43	7	
4	0	0	1	1	511	512	0	462	43	7	
5	0	0	1	1	513	512	1	475	43	7	
6	0	0	1	1	510	512	0	496	43	7	
7	0	0	1	1	504	511	1	513	43	7	
8	0	0	1	1	516	512	1	488	43	7	
9	0	0	1	1	511	512	0	480	43	7	
10	0	0	1	1	515	512	1	485	43	7	
11	0	0	1	1	501	512	1	501	43	7	
12	0	0	1	1	510	512	1	512	43	7	
13	0	0	1	1	509	512	1	493	43	7	
14	0	0	1	1	515	512	0	487	43	7	
15	0	0	1	1	509	512	1	501	43	7	
0	0	0	1	1	508	512	1	519	42	7	
1	0	0	1	1	508	512	0	540	42	7	
2	0	0	1	1	504	512	1	537	42	7	
3	0	0	1	1	503	512	0	515	42	7	
4	0	0	1	1	519	512	0	517	42	7	
5	0	0	1	1	511	512	1	525	42	7	
6	0	0	1	1	510	512	0	541	42	7	
7	0	0	1	1	513	512	2	558	41	7	
8	0	0	1	1	510	512	1	550	41	7	
9	0	0	1	1	514	512	0	538	41	7	
10	0	0	1	1	503	512	1	545	41	7	
11	0	0	1	1	512	512	0	555	41	7	
12	0	0	1	1	514	512	1	570	41	7	
13	0	0	1	1	505	512	0	550	41	7	
14	0	0	1	1	503	512	1	533	41	7	
15	0	0	1	1	507	512	1	541	41	7	
0	0	0	1	1	515	512	0	552	41	7	
1	0	0	1	1	510	512	1	568	41	7	
2	0	0	1	1	511	512	0	568	40	7	
3	0	0	1	1	515	512	1	540	40	7	
4	0	0	1	1	510	512	1	535	40	7	
5	0	0	1	1	508	512	0	542	40	7	
6	0	0	1	1	507	512	1	554	40	7	
7	0	0	1	1	513	512	0	568	40	7	
8	0	0	1	1	510	512	1	540	40	7	
9	0	0	1	1	509	512	0	530	39	8	
10	0	0	1	1	513	512	0	521	39	8	
11	0	0	1	1	517	512	1	520	39	8	
12	0	0	1	1	512	512	1	526	39	8	
13	0	0	1	1	511	513	0	520	39	8	
14	0	0	1	1	516	512	1	510	38	8	
15	0	0	1	1	510	512	0	516	38	8	
0	0	0	1	1	504	512	0	524	38	8	
